Time,Y-Force,Work Integrand,Mass,Mass error
0.0,0.0,0.0,0.7653668647301798,0.0
0.001,-7.910228028151778e-10,-1.3265624523688463e-17,0.7653668647301795,0.0
0.002,-6.324065271456902e-9,-4.2410239543352353e-16,0.7653668647301798,0.0
0.003,-2.1329574106943028e-8,-3.217464073386998e-15,0.7653668647301796,0.0
0.004,-5.052481943934595e-8,-1.354532229381946e-14,0.7653668647301797,0.0
0.005,-9.861327487925564e-8,-4.129679721119248e-14,0.7653668647301795,0.0
0.006,-1.7028407528485445e-7,-1.026584259732012e-13,0.7653668647301798,0.0
0.007,-2.7021138926386357e-7,-2.2166420751061709e-13,0.7653668647301799,0.0
0.008,-4.030538556243357e-7,-4.3173512102370195e-13,0.7653668647301798,0.0
0.009,-5.734540389212839e-7,-7.772077553306895e-13,0.7653668647301797,0.0
0.01,-7.860378290480696e-7,-1.3148517817335604e-12,0.7653668647301797,0.0
0.011,-1.0454138967830318e-6,-2.1153757909804624e-12,0.7653668647301799,0.0
0.012,-1.3561731675437727e-6,-3.264921524394446e-12,0.76536686473018,0.0
0.013,-1.7228882143172086e-6,-4.8665456760642475e-12,0.7653668647301799,0.0
0.014,-2.150112812238092e-6,-7.041689582675686e-12,0.7653668647301799,0.0
0.015,-2.6423813270781693e-6,-9.931635855483145e-12,0.7653668647301797,0.0
0.016,-3.2042082178662668e-6,-1.369895229154025e-11,0.7653668647301797,0.0
0.017,-3.8400875523869615e-6,-1.8528922259084934e-11,0.7653668647301799,0.0
0.018,-4.55449244096684e-6,-2.4630961673545904e-11,0.7653668647301797,0.0
0.019,-5.35187457328945e-6,-3.224002196193011e-11,0.7653668647301798,0.0
0.02,-6.2366637290089955e-6,-4.161797905201359e-11,0.76536686473018,0.0
0.021,-7.2132672417346555e-6,-5.305500793063205e-11,0.76536686473018,0.0
0.022,-8.286069554941378e-6,-6.687094242463455e-11,0.7653668647301796,0.0
0.023,-9.459431749458957e-6,-8.341662046369258e-11,0.7653668647301801,0.0
0.024,-1.0737691055417997e-5,-1.0307521390169844e-10,0.7653668647301801,0.0
0.025,-1.2125160405052071e-5,-1.262635433185754e-10,0.76536686473018,0.0
0.026,-1.362612797572993e-5,-1.534333765861604e-10,0.7653668647301796,0.0
0.027,-1.5244856738760859e-5,-1.8507271276347595e-10,0.7653668647301799,0.0
0.028,-1.698558401930228e-5,-2.21707048400822e-10,0.7653668647301802,0.0
0.029,-1.8852521080248152e-5,-2.6390062945786004e-10,0.7653668647301796,0.0
0.03,-2.084985268213657e-5,-3.1225768523071747e-10,0.7653668647301798,0.0
0.031,-2.2981736675475872e-5,-3.6742364663608753e-10,0.7653668647301796,0.0
0.032,-2.5252303564204936e-5,-4.3008634724296213e-10,0.7653668647301797,0.0
0.033,-2.7665656155750895e-5,-5.009772071163721e-10,0.7653668647301797,0.0
0.034,-3.0225869108058134e-5,-5.808724004726339e-10,0.7653668647301795,0.0
0.035,-3.293698858453098e-5,-6.705940046422727e-10,0.7653668647301797,0.0
0.036,-3.580303184769207e-5,-7.710111323667264e-10,0.7653668647301796,0.0
0.037,-3.882798688792377e-5,-8.830410463378491e-10,0.7653668647301798,0.0
0.038,-4.201581208507221e-5,-1.0076502558108115e-9,0.7653668647301798,0.0
0.039,-4.5370435809211074e-5,-1.1458555950532245e-9,0.7653668647301798,0.0
0.04,-4.8895756091571485e-5,-1.2987252841082167e-9,0.7653668647301798,0.0
0.041,-5.259564028659014e-5,-1.4673799715055448e-9,0.7653668647301795,0.0
0.042,-5.647392472063473e-5,-1.65299375675911e-9,0.7653668647301795,0.0
0.043,-6.0534414377144685e-5,-1.8567951975365657e-9,0.7653668647301795,0.0
0.044,-6.478088255645886e-5,-2.080068296019021e-9,0.7653668647301797,0.0
0.045,-6.921707058316073e-5,-2.3241534662668756e-9,0.7653668647301798,0.0
0.046,-7.384668749210732e-5,-2.590448483804741e-9,0.7653668647301797,0.0
0.047,-7.867340971223769e-5,-2.8804094168359095e-9,0.7653668647301799,0.0
0.048,-8.370088080944527e-5,-3.1955515377650023e-9,0.7653668647301797,0.0
0.049,-8.893271116372503e-5,-3.5374502137074234e-9,0.7653668647301798,0.0
0.05,-9.437247773558255e-5,-3.9077417815150525e-9,0.7653668647301797,0.0
0.051,-0.00010002372373474344,-4.3081244008536185e-9,0.7653668647301796,0.0
0.052,-0.00010588995844518223,-4.74035888953304e-9,0.76536686473018,0.0
0.053,-0.0001119746568809532,-5.2062695385428565e-9,0.7653668647301798,0.0
0.054,-0.00011828125960899882,-5.707744907070575e-9,0.7653668647301799,0.0
0.055,-0.00012481317245560675,-6.246738599928838e-9,0.7653668647301799,0.0
0.056,-0.00013157376632078055,-6.825270024829987e-9,0.7653668647301796,0.0
0.057,-0.0001385663769193357,-7.445425128816828e-9,0.7653668647301798,0.0
0.058,-0.000145794304583724,-8.10935711622132e-9,0.7653668647301798,0.0
0.059,-0.0001532608140415448,-8.819287147581942e-9,0.7653668647301798,0.0
0.06,-0.00016096913422680714,-9.577505017568217e-9,0.76536686473018,0.0
0.061,-0.00016892245806099382,-1.0386369815910349e-8,0.7653668647301798,0.0
0.062,-0.00017712394229807416,-1.1248310563310906e-8,0.7653668647301797,0.0
0.063,-0.0001855767073042358,-1.2165826835010144e-8,0.7653668647301799,0.0
0.064,-0.00019428383693487206,-1.3141489358777718e-8,0.7653668647301796,0.0
0.065,-0.00020324837831031672,-1.4177940595272551e-8,0.7653668647301798,0.0
0.066,-0.00021247334170393373,-1.5277895301123233e-8,0.7653668647301798,0.0
0.067,-0.00022196170036936635,-1.644414106884715e-8,0.7653668647301799,0.0
0.068,-0.00023171639040198144,-1.7679538847958703e-8,0.7653668647301799,0.0
0.069,-0.00024174031058032952,-1.8987023450397263e-8,0.7653668647301799,0.0
0.07,-0.0002520363222879851,-2.036960403047636e-8,0.7653668647301799,0.0
0.071,-0.000262607249325697,-2.1830364549992867e-8,0.7653668647301798,0.0
0.072,-0.00027345587784566305,-2.3372464220635693e-8,0.7653668647301799,0.0
0.073,-0.0002845849562125302,-2.499913793265222e-8,0.7653668647301798,0.0
0.074,-0.00029599719493100807,-2.6713696657168625e-8,0.7653668647301796,0.0
0.075,-0.00030769526651042156,-2.8519527831488223e-8,0.7653668647301799,0.0
0.076,-0.000319681805404759,-3.042009573002414e-8,0.7653668647301799,0.0
0.077,-0.00033195940793984136,-3.241894181140663e-8,0.7653668647301799,0.0
0.078,-0.0003445306322089614,-3.451968504713187e-8,0.7653668647301797,0.0
0.079,-0.0003573979980333597,-3.6726022230152994e-8,0.76536686473018,0.0
0.08,-0.00037056398687829173,-3.904172827054204e-8,0.7653668647301797,0.0
0.081,-0.00038403104182860304,-4.147065646545626e-8,0.7653668647301796,0.0
0.082,-0.00039780156750790496,-4.401673875400699e-8,0.7653668647301798,0.0
0.083,-0.0004118779300714692,-4.66839859547812e-8,0.7653668647301798,0.0
0.084,-0.000426262457132065,-4.9476487980269594e-8,0.7653668647301798,0.0
0.085,-0.00044095743780214747,-5.239841403787771e-8,0.7653668647301798,0.0
0.086,-0.00045596512258105903,-5.545401281204475e-8,0.7653668647301797,0.0
0.087,-0.00047128772340832015,-5.8647612625979456e-8,0.76536686473018,0.0
0.088,-0.00048692741364675385,-6.198362158415138e-8,0.7653668647301795,0.0
0.089,-0.0005028863280696072,-6.546652770524118e-8,0.7653668647301796,0.0
0.09,-0.0005191665628503372,-6.910089902584455e-8,0.7653668647301797,0.0
0.091,-0.0005357701756181221,-7.28913836986738e-8,0.7653668647301798,0.0
0.092,-0.0005526991854298835,-7.684271006186557e-8,0.7653668647301799,0.0
0.093,-0.0005699555728346795,-8.095968670164761e-8,0.7653668647301801,0.0
0.094,-0.0005875412798888036,-8.52472024858678e-8,0.7653668647301798,0.0
0.095,-0.0006054582101646666,-8.971022659605941e-8,0.7653668647301798,0.0
0.096,-0.0006237082288391704,-9.435380852735979e-8,0.7653668647301798,0.0
0.097,-0.0006422931627296791,-9.918307808523064e-8,0.7653668647301799,0.0
0.098,-0.0006612148003135587,-1.0420324535024856e-7,0.7653668647301798,0.0
0.099,-0.0006804748918640691,-1.094196006488587e-7,0.7653668647301798,0.0
0.1,-0.0007000751494161683,-1.1483751448051636e-7,0.7653668647301796,0.0
0.101,-0.0007200172469534749,-1.204624374543696e-7,0.7653668647301797,0.0
0.102,-0.0007403028203860629,-1.2629990019038e-7,0.76536686473018,0.0
0.103,-0.0007609334676943469,-1.3235551322673175e-7,0.7653668647301796,0.0
0.104,-0.0007819107490032451,-1.3863496688110806e-7,0.7653668647301796,0.0
0.105,-0.0008032361866834314,-1.451440311315915e-7,0.7653668647301799,0.0
0.106,-0.0008249112654259427,-1.5188855545446734e-7,0.7653668647301798,0.0
0.107,-0.0008469374323878398,-1.5887446866040067e-7,0.7653668647301798,0.0
0.108,-0.0008693160972863545,-1.6610777871819927e-7,0.76536686473018,0.0
0.109,-0.000892048632515241,-1.7359457255792252e-7,0.7653668647301798,0.0
0.11,-0.0009151363732717854,-1.8134101586032934e-7,0.7653668647301798,0.0
0.111,-0.0009385806176767097,-1.893533528338578e-7,0.7653668647301798,0.0
0.112,-0.0009623826269167246,-1.9763790598005797e-7,0.7653668647301795,0.0
0.113,-0.0009865436253857496,-2.0620107584189444e-7,0.7653668647301797,0.0
0.114,-0.0010110648008256895,-2.150493407414777e-7,0.7653668647301796,0.0
0.115,-0.0010359473044694312,-2.2418925650240012e-7,0.76536686473018,0.0
0.116,-0.0010611922512047123,-2.3362745615976592e-7,0.7653668647301799,0.0
0.117,-0.0010868007197277763,-2.433706496580241e-7,0.7653668647301798,0.0
0.118,-0.0011127737526952508,-2.5342562353779675e-7,0.7653668647301796,0.0
0.119,-0.0011391123569324257,-2.637992406073113e-7,0.7653668647301798,0.0
0.12,-0.0011658175035393903,-2.7449843960185294e-7,0.7653668647301797,0.0
0.121,-0.001192890128149049,-2.855302348391507e-7,0.7653668647301796,0.0
0.122,-0.0012203311310501341,-2.9690171585139945e-7,0.7653668647301799,0.0
0.123,-0.001248141377389711,-3.0862004701196887e-7,0.7653668647301797,0.0
0.124,-0.0012763216973690206,-3.2069246715251765e-7,0.7653668647301793,0.0
0.125,-0.0013048728864513137,-3.331262891684522e-7,0.7653668647301798,0.0
0.126,-0.001333795705531049,-3.459288996107246e-7,0.7653668647301798,0.0
0.127,-0.0013630908811776976,-3.591077582719925e-7,0.7653668647301798,0.0
0.128,-0.0013927591058182642,-3.726703977527759e-7,0.7653668647301796,0.0
0.129,-0.0014228010379309097,-3.8662442303655795e-7,0.7653668647301798,0.0
0.13,-0.0014532173023193984,-4.0097751103718507e-7,0.7653668647301799,0.0
0.131,-0.0014840084902916217,-4.157374101340151e-7,0.7653668647301799,0.0
0.132,-0.0015151751598723173,-4.309119397300507e-7,0.7653668647301799,0.0
0.133,-0.0015467178360806244,-4.465089897581938e-7,0.7653668647301801,0.0
0.134,-0.0015786370111277037,-4.625365202068528e-7,0.7653668647301798,0.0
0.135,-0.0016109331446614306,-4.79002560625167e-7,0.76536686473018,0.0
0.136,-0.0016436066639884395,-4.95915209631592e-7,0.76536686473018,0.0
0.137,-0.0016766579643565649,-5.132826344008551e-7,0.7653668647301796,0.0
0.138,-0.0017100874091586782,-5.311130701513445e-7,0.7653668647301801,0.0
0.139,-0.0017438953302200133,-5.494148196215484e-7,0.7653668647301798,0.0
0.14,-0.0017780820280348664,-5.681962525431322e-7,0.7653668647301798,0.0
0.141,-0.0018126477720192824,-5.874658051062106e-7,0.7653668647301799,0.0
0.142,-0.0018475928007624098,-6.072319794103069e-7,0.7653668647301798,0.0
0.143,-0.0018829173223267048,-6.275033429219276e-7,0.7653668647301797,0.0
0.144,-0.001918621514485963,-6.482885279191246e-7,0.7653668647301798,0.0
0.145,-0.0019547055249740097,-6.695962309217476e-7,0.7653668647301799,0.0
0.146,-0.0019911694718244277,-6.914352121339474e-7,0.7653668647301799,0.0
0.147,-0.0020280134435797237,-7.138142948669461e-7,0.7653668647301798,0.0
0.148,-0.0020652374995986378,-7.367423649588811e-7,0.7653668647301799,0.0
0.149,-0.0021028416703234853,-7.602283702071166e-7,0.7653668647301798,0.0
0.15,-0.002140825957598569,-7.842813197569704e-7,0.7653668647301798,0.0
0.151,-0.0021791903348922226,-8.089102835313151e-7,0.7653668647301798,0.0
0.152,-0.0022179347476654065,-8.341243916149682e-7,0.76536686473018,0.0
0.153,-0.0022570591135910867,-8.599328336816913e-7,0.7653668647301799,0.0
0.154,-0.0022965633228850812,-8.863448583614495e-7,0.7653668647301798,0.0
0.155,-0.0023364472386031565,-9.133697726529909e-7,0.7653668647301799,0.0
0.156,-0.0023767106969190266,-9.410169413067186e-7,0.7653668647301797,0.0
0.157,-0.0024173535074374364,-9.692957862108154e-7,0.76536686473018,0.0
0.158,-0.002458375453501027,-9.98215785771514e-7,0.7653668647301799,0.0
0.159,-0.0024997762924687805,-1.0277864743100636e-6,0.7653668647301799,0.0
0.16,-0.0025415557560837243,-1.0580174414255442e-6,0.76536686473018,0.0
0.161,-0.002583713550690536,-1.0889183313757874e-6,0.7653668647301799,0.0
0.162,-0.0026262493576276746,-1.1204988424611158e-6,0.7653668647301799,0.0
0.163,-0.002669162833477401,-1.1527687263916024e-6,0.7653668647301797,0.0
0.164,-0.0027124536104414787,-1.1857377876540055e-6,0.7653668647301797,0.0
0.165,-0.0027561212965920845,-1.2194158829032051e-6,0.7653668647301799,0.0
0.166,-0.0028001654762341843,-1.2538129202961787e-6,0.7653668647301797,0.0
0.167,-0.002844585710199077,-1.2889388589219265e-6,0.7653668647301798,0.0
0.168,-0.002889381536178348,-1.3248037081021622e-6,0.7653668647301797,0.0
0.169,-0.002934552469031626,-1.361417526809204e-6,0.7653668647301798,0.0
0.17,-0.0029800980011351896,-1.39879042302944e-6,0.7653668647301798,0.0
0.171,-0.0030260176026604135,-1.4369325531071687e-6,0.7653668647301799,0.0
0.172,-0.003072310721942806,-1.4758541211439512e-6,0.76536686473018,0.0
0.173,-0.003118976785764005,-1.5155653783634855e-6,0.7653668647301798,0.0
0.174,-0.0031660151997403574,-1.55607662246694e-6,0.76536686473018,0.0
0.175,-0.0032134253485827102,-1.5973981970329558e-6,0.7653668647301798,0.0
0.176,-0.0032612065964516823,-1.6395404908776424e-6,0.7653668647301796,0.0
0.177,-0.0033093582873262584,-1.682513937424873e-6,0.7653668647301797,0.0
0.178,-0.0033578797452613607,-1.7263290141049858e-6,0.7653668647301798,0.0
0.179,-0.0034067702747728745,-1.7709962417101176e-6,0.7653668647301797,0.0
0.18,-0.0034560291611178684,-1.816526183814047e-6,0.7653668647301797,0.0
0.181,-0.0035056556707147024,-1.8629294461153852e-6,0.7653668647301796,0.0
0.182,-0.0035556490513930505,-1.9102166758531904e-6,0.7653668647301796,0.0
0.183,-0.0036060085327256353,-1.9583985611865877e-6,0.7653668647301797,0.0
0.184,-0.003656733326429684,-2.007485830595422e-6,0.7653668647301799,0.0
0.185,-0.003707822626636492,-2.057489252275599e-6,0.7653668647301799,0.0
0.186,-0.0037592756102640124,-2.108419633538002e-6,0.7653668647301798,0.0
0.187,-0.0038110914373135074,-2.160287820212833e-6,0.7653668647301796,0.0
0.188,-0.003863269251243029,-2.213104696063492e-6,0.7653668647301797,0.0
0.189,-0.003915808179270286,-2.266881182190158e-6,0.7653668647301799,0.0
0.19,-0.003968707332733246,-2.321628236461341e-6,0.7653668647301797,0.0
0.191,-0.004021965807384564,-2.3773568529055367e-6,0.7653668647301798,0.0
0.192,-0.004075582683789047,-2.434078061188316e-6,0.7653668647301798,0.0
0.193,-0.004129557027581221,-2.491802925978174e-6,0.7653668647301797,0.0
0.194,-0.00418388788986368,-2.5505425464379325e-6,0.7653668647301798,0.0
0.195,-0.004238574307491305,-2.610308055637318e-6,0.7653668647301799,0.0
0.196,-0.004293615303437193,-2.6711106199965497e-6,0.7653668647301798,0.0
0.197,-0.004349009887117283,-2.7329614387498757e-6,0.7653668647301798,0.0
0.198,-0.004404757054717656,-2.7958717434101946e-6,0.7653668647301795,0.0
0.199,-0.004460855789504503,-2.859852797201367e-6,0.7653668647301798,0.0
0.2,-0.004517305062203381,-2.9249158945525433e-6,0.7653668647301799,0.0
0.201,-0.004574103831298526,-2.991072360579482e-6,0.7653668647301798,0.0
0.202,-0.00463125104335349,-3.058333550530739e-6,0.7653668647301799,0.0
0.203,-0.004688745633360636,-3.126710849296957e-6,0.7653668647301798,0.0
0.204,-0.004746586525062213,-3.1962156709316493e-6,0.7653668647301797,0.0
0.205,-0.004804772631287424,-3.266859458098256e-6,0.7653668647301796,0.0
0.206,-0.004863302854227314,-3.3386536816110927e-6,0.7653668647301799,0.0
0.207,-0.004922176085859764,-3.411609839947677e-6,0.7653668647301797,0.0
0.208,-0.004981391208163544,-3.4857394587636554e-6,0.76536686473018,0.0
0.209,-0.005040947093511772,-3.5610540904200925e-6,0.7653668647301798,0.0
0.21,-0.005100842604989442,-3.63756531353396e-6,0.7653668647301797,0.0
0.211,-0.005161076596671421,-3.7152847324971837e-6,0.7653668647301798,0.0
0.212,-0.005221647913985272,-3.7942239770507712e-6,0.7653668647301798,0.0
0.213,-0.005282555394007016,-3.874394701831613e-6,0.7653668647301798,0.0
0.214,-0.005343797865805744,-3.9558085859535495e-6,0.7653668647301796,0.0
0.215,-0.005405374150716735,-4.038477332547448e-6,0.7653668647301796,0.0
0.216,-0.005467283062682071,-4.1224126683997355e-6,0.7653668647301799,0.0
0.217,-0.005529523408583703,-4.20762634349486e-6,0.7653668647301797,0.0
0.218,-0.005592093988494806,-4.294130130617175e-6,0.7653668647301799,0.0
0.219,-0.0056549935960639175,-4.381935825004211e-6,0.7653668647301799,0.0
0.22,-0.005718221018768066,-4.471055243923834e-6,0.7653668647301796,0.0
0.221,-0.0057817750382289645,-4.561500226284588e-6,0.7653668647301798,0.0
0.222,-0.005845654430568281,-4.653282632317802e-6,0.76536686473018,0.0
0.223,-0.005909857966610588,-4.746414343192486e-6,0.7653668647301797,0.0
0.224,-0.0059743844122941425,-4.840907260643661e-6,0.7653668647301796,0.0
0.225,-0.006039232528908034,-4.9367733066837515e-6,0.76536686473018,0.0
0.226,-0.006104401073389276,-5.0340244232352505e-6,0.7653668647301797,0.0
0.227,-0.0061698887986736395,-5.132672571813053e-6,0.7653668647301796,0.0
0.228,-0.006235694453907037,-5.232729733218059e-6,0.7653668647301795,0.0
0.229,-0.006301816784819891,-5.334207907237284e-6,0.7653668647301798,0.0
0.23,-0.006368254533956286,-5.437119112335076e-6,0.7653668647301797,0.0
0.231,-0.006435006440999924,-5.54147538538532e-6,0.7653668647301798,0.0
0.232,-0.006502071243050356,-5.64728878138499e-6,0.7653668647301799,0.0
0.233,-0.006569447674889872,-5.75457137318657e-6,0.7653668647301799,0.0
0.234,-0.006637134469316575,-5.8633352512491195e-6,0.7653668647301797,0.0
0.235,-0.006705130357354427,-5.973592523380667e-6,0.7653668647301801,0.0
0.236,-0.0067734340685889904,-6.085355314528092e-6,0.7653668647301798,0.0
0.237,-0.006842044331410779,-6.1986357664969675e-6,0.76536686473018,0.0
0.238,-0.006910959873311917,-6.313446037786111e-6,0.7653668647301799,0.0
0.239,-0.006980179421135713,-6.429798303340603e-6,0.7653668647301798,0.0
0.24,-0.00704970170138397,-6.547704754390022e-6,0.7653668647301798,0.0
0.241,-0.007119525440428376,-6.667177598234644e-6,0.7653668647301798,0.0
0.242,-0.007189649364816031,-6.788229058061557e-6,0.7653668647301799,0.0
0.243,-0.007260072201509704,-6.910871372783336e-6,0.7653668647301799,0.0
0.244,-0.007330792678187148,-7.035116796889939e-6,0.7653668647301797,0.0
0.245,-0.007401809523456926,-7.160977600279136e-6,0.7653668647301798,0.0
0.246,-0.00747312146710577,-7.2884660681353e-6,0.7653668647301798,0.0
0.247,-0.007544727240403226,-7.417594500791708e-6,0.7653668647301797,0.0
0.248,-0.007616625576303715,-7.548375213603043e-6,0.7653668647301799,0.0
0.249,-0.007688815209724087,-7.6808205368322e-6,0.7653668647301798,0.0
0.25,-0.00776129487776922,-7.814942815567672e-6,0.7653668647301797,0.0
0.251,-0.007834063319980267,-7.950754409655463e-6,0.76536686473018,0.0
0.252,-0.007907119278596664,-8.088267693528214e-6,0.7653668647301799,0.0
0.253,-0.007980461498741764,-8.227495056259849e-6,0.7653668647301798,0.0
0.254,-0.008054088728713715,-8.368448901381262e-6,0.7653668647301797,0.0
0.255,-0.008127999720185741,-8.511141646929104e-6,0.7653668647301796,0.0
0.256,-0.008202193228455279,-8.655585725348856e-6,0.7653668647301799,0.0
0.257,-0.008276668012634936,-8.801793583501985e-6,0.7653668647301798,0.0
0.258,-0.008351422835915834,-8.949777682582243e-6,0.7653668647301798,0.0
0.259,-0.008426456465774557,-9.099550498164674e-6,0.7653668647301796,0.0
0.26,-0.008501767674203187,-9.251124520204095e-6,0.76536686473018,0.0
0.261,-0.008577355237889162,-9.404512252996497e-6,0.7653668647301798,0.0
0.262,-0.008653217938478175,-9.559726215237164e-6,0.7653668647301796,0.0
0.263,-0.008729354562728275,-9.71677894003064e-6,0.7653668647301798,0.0
0.264,-0.00880576390276877,-9.875682974944079e-6,0.7653668647301798,0.0
0.265,-0.00888244475629918,-1.0036450882009188e-5,0.76536686473018,0.0
0.266,-0.008959395926750435,-1.0199095237877062e-5,0.7653668647301798,0.0
0.267,-0.009036616223528249,-1.0363628633743146e-5,0.7653668647301797,0.0
0.268,-0.009114104462171202,-1.0530063675569072e-5,0.7653668647301798,0.0
0.269,-0.009191859464588337,-1.0698412984052946e-5,0.7653668647301798,0.0
0.27,-0.009269880059208813,-1.0868689194775717e-5,0.7653668647301798,0.0
