Time,Y-Force,Work Integrand,Mass,Mass error
0.0,2.220446049250313e-15,5.293955920339377e-23,0.785398163375654,0.0
0.001,-4.63405180894938e-9,-6.950740453767968e-17,0.7853981633756543,0.0
0.002,-3.7027942045853024e-8,-2.2214544155042397e-15,0.7853981633756542,0.0
0.003,-1.2475975186276855e-7,-1.6840040060100346e-14,0.7853981633756544,0.0
0.004,-2.950992676886699e-7,-7.080965956644716e-14,0.785398163375654,0.0
0.005,-5.748890186119127e-7,-2.1552948425161337e-13,0.7853981633756545,0.0
0.006,-9.904283255757207e-7,-5.346708422904282e-13,0.7853981633756544,0.0
0.007,-1.5673610329614007e-6,-1.1516071555918921e-12,0.7853981633756542,0.0
0.008,-2.330567474562173e-6,-2.2364498342750778e-12,0.7853981633756542,0.0
0.009,-3.304061322317864e-6,-4.012628006474665e-12,0.7853981633756543,0.0
0.01,-4.510891844056175e-6,-6.7629545986851744e-12,0.7853981633756544,0.0
0.011,-5.973052218166686e-6,-1.0835127176514058e-11,0.7853981633756543,0.0
0.012,-7.711394192977394e-6,-1.6646617486627195e-11,0.7853981633756544,0.0
0.013,-9.745549696571487e-6,-2.4688910256950576e-11,0.7853981633756543,0.0
0.014,-1.209385981626454e-5,-3.55310586869231e-11,0.7853981633756544,0.0
0.015,-1.477331128985071e-5,-4.9822530642947265e-11,0.785398163375654,0.0
0.016,-1.7799481113911497e-5,-6.829532747064913e-11,0.7853981633756543,0.0
0.017,-2.1186489294056088e-5,-9.176536417069138e-11,0.7853981633756542,0.0
0.018,-2.4946959995109097e-5,-1.2113310757795972e-10,0.7853981633756545,0.0
0.019,-2.9091991317287125e-5,-1.5738347651077797e-10,0.7853981633756544,0.0
0.02,-3.363113370014048e-5,-2.015850154174232e-10,0.7853981633756546,0.0
0.021,-3.8572377063506025e-5,-2.548883602266635e-10,0.7853981633756542,0.0
0.022,-4.3922146604202794e-5,-3.185240220589464e-10,0.7853981633756546,0.0
0.023,-4.968530724847042e-5,-3.937995221628659e-10,0.7853981633756544,0.0
0.024,-5.586517665889801e-5,-4.820959161628972e-10,0.7853981633756542,0.0
0.025,-6.246354649563912e-5,-5.848637537512016e-10,0.7853981633756543,0.0
0.026,-6.94807119305807e-5,-7.036185241965517e-10,0.7853981633756543,0.0
0.027,-7.691550891797405e-5,-8.399356440065369e-10,0.7853981633756544,0.0
0.028,-8.476535912205208e-5,-9.954450464470148e-10,0.7853981633756544,0.0
0.029,-9.30263220433325e-5,-1.1718254383199156e-9,0.7853981633756546,0.0
0.03,-0.00010169315386798772,-1.3707982908675684e-9,0.7853981633756544,0.0
0.031,-0.00011075937288351767,-1.59412163573409e-9,0.7853981633756545,0.0
0.032,-0.00012021733067646423,-1.8435837380629486e-9,0.7853981633756546,0.0
0.033,-0.00013005828886303306,-2.1209967200939246e-9,0.7853981633756546,0.0
0.034,-0.00014027250071491082,-2.4281902095307003e-9,0.7853981633756542,0.0
0.035,-0.0001508492971358244,-2.7670050872484757e-9,0.7853981633756543,0.0
0.036,-0.00016177717653720336,-3.1392874048926755e-9,0.7853981633756542,0.0
0.037,-0.00017304389783223684,-3.5468825475276763e-9,0.7853981633756545,0.0
0.038,-0.00018463657619172125,-3.9916297066180766e-9,0.7853981633756544,0.0
0.039,-0.0001965417807823222,-4.4753567322029005e-9,0.7853981633756542,0.0
0.04,-0.00020874563397033086,-4.999875424876413e-9,0.7853981633756544,0.0
0.041,-0.00022123391134654113,-5.566977328080804e-9,0.7853981633756546,0.0
0.042,-0.0002339921420202451,-6.178430070475618e-9,0.7853981633756545,0.0
0.043,-0.000247005708528647,-6.8359743137121325e-9,0.7853981633756543,0.0
0.044,-0.0002602599458119137,-7.541321339046749e-9,0.7853981633756543,0.0
0.045,-0.0002737402387253951,-8.296151316717162e-9,0.7853981633756542,0.0
0.046,-0.00028743211739268304,-9.102112286785537e-9,0.785398163375654,0.0
0.047,-0.0003013213501001921,-9.960819870652644e-9,0.7853981633756546,0.0
0.048,-0.0003153940329561067,-1.0873857736316112e-8,0.7853981633756544,0.0
0.049,-0.00032963667611607406,-1.184277882139114e-8,0.7853981633756542,0.0
0.05,-0.00034403628584644963,-1.2869107317376653e-8,0.7853981633756544,0.0
0.051,-0.00035858044222436547,-1.3954341412876535e-8,0.7853981633756542,0.0
0.052,-0.0003732573720434118,-1.5099956780691972e-8,0.7853981633756543,0.0
0.053,-0.0003880560164075675,-1.630741078973005e-8,0.7853981633756543,0.0
0.054,-0.0004029660929552037,-1.7578147416263414e-8,0.7853981633756542,0.0
0.055,-0.00041797815229749347,-1.8913602824617006e-8,0.7853981633756543,0.0
0.056,-0.00043308362844562964,-2.0315211571352368e-8,0.785398163375654,0.0
0.057,-0.0004482748830079153,-2.1784413395314135e-8,0.7853981633756547,0.0
0.058,-0.0004635452431576148,-2.3322660539857177e-8,0.7853981633756544,0.0
0.059,-0.00047888903305892683,-2.4931425548206003e-8,0.7853981633756544,0.0
0.06,-0.0004943015988536636,-2.6612209479145803e-8,0.7853981633756542,0.0
0.061,-0.0005097793270403272,-2.8366550472382242e-8,0.7853981633756543,0.0
0.062,-0.0005253196563370643,-3.01960325967967e-8,0.7853981633756543,0.0
0.063,-0.0005409210831648359,-3.2102294915447097e-8,0.7853981633756544,0.0
0.064,-0.0005565831606260119,-3.408704068666316e-8,0.7853981633756542,0.0
0.065,-0.0005723064913034648,-3.6152046633961465e-8,0.7853981633756544,0.0
0.066,-0.0005880927139521042,-3.829917220231306e-8,0.7853981633756545,0.0
0.067,-0.0006039444843297659,-4.053036873613168e-8,0.7853981633756545,0.0
0.068,-0.0006198654503468681,-4.284768848590386e-8,0.7853981633756543,0.0
0.069,-0.000635860221803064,-4.5253293385564414e-8,0.7853981633756545,0.0
0.07,-0.0006519343350910312,-4.774946352171464e-8,0.7853981633756544,0.0
0.071,-0.0006680942130659062,-5.0338605219656324e-8,0.7853981633756543,0.0
0.072,-0.0006843471204036611,-5.3023258687179666e-8,0.7853981633756544,0.0
0.073,-0.0007007011149999798,-5.580610514346364e-8,0.7853981633756546,0.0
0.074,-0.0007171649955171056,-5.868997338047779e-8,0.7853981633756542,0.0
0.075,-0.0007337482456546418,-6.167784569592626e-8,0.7853981633756544,0.0
0.076,-0.0007504609754915847,-6.477286314856548e-8,0.7853981633756544,0.0
0.077,-0.0007673138603010443,-6.797833009195811e-8,0.7853981633756543,0.0
0.078,-0.0007843180772253433,-7.129771794343095e-8,0.7853981633756546,0.0
0.079,-0.0008014852403079864,-7.473466816010138e-8,0.7853981633756544,0.0
0.08,-0.0008188273342311092,-7.829299439017848e-8,0.7853981633756545,0.0
0.081,-0.0008363566472073813,-8.19766837750085e-8,0.7853981633756544,0.0
0.082,-0.0008540857034349258,-8.578989740324716e-8,0.785398163375654,0.0
0.083,-0.0008720271955158232,-8.973696988837316e-8,0.7853981633756546,0.0
0.084,-0.0008901939172498707,-9.38224080807102e-8,0.785398163375654,0.0
0.085,-0.0009085986971584248,-9.805088892352563e-8,0.7853981633756545,0.0
0.086,-0.0009272543331184657,-1.0242725645475065e-7,0.7853981633756545,0.0
0.087,-0.0009461735285225537,-1.0695651797999056e-7,0.7853981633756543,0.0
0.088,-0.000965368830166291,-1.1164383944162626e-7,0.7853981633756544,0.0
0.089,-0.0009848525683104903,-1.1649454000663964e-7,0.7853981633756544,0.0
0.09,-0.0010046367991458638,-1.2151408592596348e-7,0.7853981633756544,0.0
0.091,-0.0010247332499435657,-1.267080836964726e-7,0.7853981633756543,0.0
0.092,-0.0010451532671265085,-1.3208227256405114e-7,0.7853981633756545,0.0
0.093,-0.0010659077675558848,-1.3764251644379256e-7,0.785398163375654,0.0
0.094,-0.0010870071931088354,-1.4339479528828686e-7,0.7853981633756543,0.0
0.095,-0.001108461468812827,-1.4934519597614802e-7,0.7853981633756545,0.0
0.096,-0.0011302799646553119,-1.5549990278306957e-7,0.7853981633756544,0.0
0.097,-0.0011524714612143327,-1.6186518748988925e-7,0.7853981633756547,0.0
0.098,-0.001175044119139823,-1.6844739921027894e-7,0.7853981633756544,0.0
0.099,-0.0011980054525766448,-1.7525295399183636e-7,0.7853981633756545,0.0
0.1,-0.001221362306639051,-1.8228832426506322e-7,0.7853981633756545,0.0
0.101,-0.0012451208388295498,-1.895600282195934e-7,0.7853981633756544,0.0
0.102,-0.0012692865045194068,-1.9707461915055135e-7,0.7853981633756545,0.0
0.103,-0.0012938640463318052,-2.0483867487869041e-7,0.7853981633756543,0.0
0.104,-0.001318857487425884,-2.128587872786804e-7,0.7853981633756544,0.0
0.105,-0.0013442701287176284,-2.2114155200656307e-7,0.7853981633756545,0.0
0.106,-0.0013701045496898878,-2.2969355847532718e-7,0.7853981633756546,0.0
0.107,-0.0013963626128847828,-2.3852138014034867e-7,0.7853981633756547,0.0
0.108,-0.001423045471833806,-2.476315651594226e-7,0.7853981633756542,0.0
0.109,-0.001450153582368774,-2.570306274741162e-7,0.7853981633756542,0.0
0.11,-0.0014776867169890018,-2.667250383691462e-7,0.7853981633756549,0.0
0.111,-0.0015056439822807022,-2.7672121854642765e-7,0.7853981633756543,0.0
0.112,-0.0015340238390497696,-2.8702553077190624e-7,0.7853981633756544,0.0
0.113,-0.0015628241250564834,-2.976442731111124e-7,0.7853981633756546,0.0
0.114,-0.0015920420801385227,-3.0858367280705125e-7,0.7853981633756539,0.0
0.115,-0.0016216743733963312,-3.1984988081246255e-7,0.7853981633756545,0.0
0.116,-0.0016517171323990887,-3.314489670037729e-7,0.7853981633756546,0.0
0.117,-0.0016821659740009487,-3.433869161033028e-7,0.7853981633756545,0.0
0.118,-0.0017130160367040403,-3.556696243038745e-7,0.7853981633756544,0.0
0.119,-0.0017442620142080756,-3.6830289662406323e-7,0.7853981633756546,0.0
0.12,-0.0017758981899596016,-3.8129244497804625e-7,0.7853981633756542,0.0
0.121,-0.0018079184726129682,-3.946438869700244e-7,0.7853981633756546,0.0
0.122,-0.0018403164319402698,-4.083627454096379e-7,0.7853981633756545,0.0
0.123,-0.0018730853351542898,-4.2245444851736827e-7,0.7853981633756546,0.0
0.124,-0.0019062181834588188,-4.3692433082925114e-7,0.7853981633756545,0.0
0.125,-0.0019397077484244463,-4.517776347649034e-7,0.7853981633756546,0.0
0.126,-0.001973546608297294,-4.670195128479151e-7,0.7853981633756547,0.0
0.127,-0.0020077271838099264,-4.826550305400083e-7,0.7853981633756543,0.0
0.128,-0.0020422417734193843,-4.98689169669826e-7,0.7853981633756544,0.0
0.129,-0.00207708258791639,-5.151268324236642e-7,0.7853981633756543,0.0
0.13,-0.0021122417840500063,-5.3197284585521e-7,0.7853981633756545,0.0
0.131,-0.0021477114972250355,-5.492319668945565e-7,0.7853981633756547,0.0
0.132,-0.0021834838731074058,-5.669088877972937e-7,0.7853981633756545,0.0
0.133,-0.0022195510978719746,-5.850082420267395e-7,0.7853981633756545,0.0
0.134,-0.002255905427329452,-6.035346104905958e-7,0.7853981633756545,0.0
0.135,-0.002292539214454159,-6.224925281234648e-7,0.7853981633756546,0.0
0.136,-0.002329444935621261,-6.418864907587396e-7,0.7853981633756543,0.0
0.137,-0.0023666152151919917,-6.617209622584259e-7,0.7853981633756543,0.0
0.138,-0.0024040428485978538,-6.820003818565519e-7,0.7853981633756546,0.0
0.139,-0.002441720823846971,-7.02729171683748e-7,0.7853981633756546,0.0
0.14,-0.0024796423413619983,-7.239117444211721e-7,0.7853981633756546,0.0
0.141,-0.0025178008322210843,-7.455525110570006e-7,0.7853981633756543,0.0
0.142,-0.002556189974815215,-7.676558887203307e-7,0.7853981633756543,0.0
0.143,-0.0025948037098131316,-7.9022630854967e-7,0.7853981633756543,0.0
0.144,-0.002633636253631,-8.132682235428845e-7,0.7853981633756545,0.0
0.145,-0.002672682110281599,-8.367861164047634e-7,0.7853981633756544,0.0
0.146,-0.002711936081683408,-8.607845073266025e-7,0.7853981633756545,0.0
0.147,-0.0027513932766134452,-8.852679616952073e-7,0.7853981633756545,0.0
0.148,-0.002791049118002764,-9.102410976849105e-7,0.7853981633756543,0.0
0.149,-0.0028308993491013013,-9.357085937373739e-7,0.7853981633756546,0.0
0.15,-0.002870940038134151,-9.616751958991436e-7,0.7853981633756543,0.0
0.151,-0.0029111675817996563,-9.881457249862752e-7,0.7853981633756543,0.0
0.152,-0.002951578707511171,-1.0151250835881706e-6,0.7853981633756543,0.0
0.153,-0.0029921704745690114,-1.0426182628735497e-6,0.7853981633756543,0.0
0.154,-0.0030329402741768874,-1.0706303492009385e-6,0.7853981633756545,0.0
0.155,-0.00307388582855328,-1.0991665305218595e-6,0.7853981633756545,0.0
0.156,-0.0031150051890667108,-1.1282321025615424e-6,0.7853981633756546,0.0
0.157,-0.0031562967334819447,-1.1578324747778083e-6,0.7853981633756545,0.0
0.158,-0.003197759162434366,-1.187973176087066e-6,0.7853981633756543,0.0
0.159,-0.0032393914951622804,-1.2186598603619765e-6,0.7853981633756545,0.0
0.16,-0.003281193064540666,-1.2498983116859298e-6,0.7853981633756544,0.0
0.161,-0.0033231635114745472,-1.2816944493553376e-6,0.785398163375654,0.0
0.162,-0.003365302778782997,-1.3140543326505558e-6,0.7853981633756542,0.0
0.163,-0.0034076111044756274,-1.3469841653489852e-6,0.7853981633756546,0.0
0.164,-0.0034500890146040852,-1.3804902999738425e-6,0.7853981633756544,0.0
0.165,-0.003492737315655692,-1.4145792418181766e-6,0.7853981633756544,0.0
0.166,-0.0035355570865602814,-1.4492576526809213e-6,0.7853981633756544,0.0
0.167,-0.003578549670324449,-1.484532354320404e-6,0.7853981633756546,0.0
0.168,-0.0036217166653078614,-1.5204103316990378e-6,0.7853981633756544,0.0
0.169,-0.003665059916271307,-1.5568987358873573e-6,0.7853981633756543,0.0
0.17,-0.0037085815050130755,-1.5940048867228067e-6,0.7853981633756546,0.0
0.171,-0.003752283740819262,-1.631736275153786e-6,0.7853981633756547,0.0
0.172,-0.003796169150675155,-1.6701005653097173e-6,0.7853981633756545,0.0
0.173,-0.00384024046914222,-1.7091055962455267e-6,0.7853981633756544,0.0
0.174,-0.003884500628116072,-1.748759383350348e-6,0.7853981633756544,0.0
0.175,-0.003928952746257153,-1.789070119466744e-6,0.7853981633756542,0.0
0.176,-0.003973600118240661,-1.8300461756199423e-6,0.7853981633756542,0.0
0.177,-0.004018446203833292,-1.8716961014270117e-6,0.7853981633756545,0.0
0.178,-0.004063494616657781,-1.9140286250962125e-6,0.7853981633756547,0.0
0.179,-0.004108749112804233,-1.957052653080594e-6,0.7853981633756542,0.0
0.18,-0.004154213579226518,-2.00077726930821e-6,0.7853981633756543,0.0
0.181,-0.0041998920218744296,-2.0452117339907986e-6,0.7853981633756544,0.0
0.182,-0.004245788553673524,-2.090365482018729e-6,0.7853981633756544,0.0
0.183,-0.0042919073822247356,-2.136248120905137e-6,0.7853981633756544,0.0
0.184,-0.0043382527973814256,-2.1828694282588663e-6,0.7853981633756543,0.0
0.185,-0.00438482915850491,-2.2302393488076843e-6,0.7853981633756546,0.0
0.186,-0.004431640881633392,-2.278367990925581e-6,0.7853981633756545,0.0
0.187,-0.004478692426365782,-2.327265622647243e-6,0.7853981633756546,0.0
0.188,-0.004525988282654492,-2.376942667222824e-6,0.7853981633756543,0.0
0.189,-0.004573532957373505,-2.4274096980974377e-6,0.7853981633756545,0.0
0.19,-0.004621330960738135,-2.478677433445046e-6,0.7853981633756548,0.0
0.191,-0.004669386792645724,-2.530756730123162e-6,0.7853981633756543,0.0
0.192,-0.0047177049288693595,-2.5836585771414015e-6,0.7853981633756545,0.0
0.193,-0.004766289807197399,-2.637394088598772e-6,0.7853981633756544,0.0
0.194,-0.004815145813524158,-2.6919744961161583e-6,0.7853981633756543,0.0
0.195,-0.004864277267922379,-2.747411140757716e-6,0.7853981633756544,0.0
0.196,-0.004913688410777883,-2.8037154644871415e-6,0.7853981633756544,0.0
0.197,-0.0049633833889553,-2.8608990011147993e-6,0.7853981633756545,0.0
0.198,-0.005013366242105466,-2.9189733668209296e-6,0.7853981633756543,0.0
0.199,-0.005063640889110488,-2.9779502502523276e-6,0.7853981633756546,0.0
0.2,-0.005114211114783718,-3.037841402184693e-6,0.7853981633756544,0.0
0.201,-0.0051650805567846625,-3.0986586248679584e-6,0.7853981633756543,0.0
0.202,-0.005216252692886947,-3.16041376101253e-6,0.7853981633756546,0.0
0.203,-0.0052677308286201985,-3.2231186824743362e-6,0.7853981633756546,0.0
0.204,-0.005319518085347141,-3.286785278709811e-6,0.7853981633756543,0.0
0.205,-0.005371617388833627,-3.3514254450439564e-6,0.7853981633756544,0.0
0.206,-0.005424031458359568,-3.4170510707645044e-6,0.7853981633756548,0.0
0.207,-0.005476762796471135,-3.483674027130639e-6,0.7853981633756542,0.0
0.208,-0.005529813679398199,-3.5513061553773834e-6,0.7853981633756544,0.0
0.209,-0.005583186148200969,-3.6199592546811744e-6,0.7853981633756546,0.0
0.21,-0.005636882000680465,-3.6896450702939183e-6,0.7853981633756543,0.0
0.211,-0.0056909027842175774,-3.7603752817776635e-6,0.7853981633756544,0.0
0.212,-0.00574524978937907,-3.832161491474761e-6,0.7853981633756543,0.0
0.213,-0.005799924044641802,-3.905015213272276e-6,0.7853981633756542,0.0
0.214,-0.005854926311926523,-3.978947861751729e-6,0.7853981633756545,0.0
0.215,-0.005910257083318271,-4.053970741717218e-6,0.7853981633756546,0.0
0.216,-0.005965916578782426,-4.130095038270849e-6,0.7853981633756542,0.0
0.217,-0.006021904745046935,-4.207331807440677e-6,0.7853981633756543,0.0
0.218,-0.006078221255528149,-4.28569196745201e-6,0.7853981633756542,0.0
0.219,-0.0061348655115556205,-4.365186290720361e-6,0.7853981633756544,0.0
0.22,-0.0061918366446693796,-4.4458253965797e-6,0.7853981633756545,0.0
0.221,-0.006249133520113581,-4.527619744895206e-6,0.7853981633756545,0.0
0.222,-0.006306754741618015,-4.6105796305199575e-6,0.7853981633756544,0.0
0.223,-0.006364698657249868,-4.694715178752773e-6,0.7853981633756546,0.0
0.224,-0.006422963366559564,-4.780036341747338e-6,0.7853981633756545,0.0
0.225,-0.006481546728793308,-4.866552896019621e-6,0.7853981633756545,0.0
0.226,-0.0065404463723588435,-4.954274441024316e-6,0.7853981633756543,0.0
0.227,-0.006599659705329053,-5.043210398828065e-6,0.7853981633756546,0.0
0.228,-0.006659183927059331,-5.133370015009348e-6,0.7853981633756542,0.0
0.229,-0.0067190160408516775,-5.224762360678779e-6,0.785398163375654,0.0
0.23,-0.006779152867589122,-5.317396335729335e-6,0.7853981633756546,0.0
0.231,-0.006839591060343153,-5.411280673296107e-6,0.7853981633756548,0.0
0.232,-0.006900327119781391,-5.506423945425597e-6,0.7853981633756546,0.0
0.233,-0.006961357410475433,-5.602834569962351e-6,0.785398163375654,0.0
0.234,-0.007022678177856623,-5.700520818613906e-6,0.7853981633756546,0.0
0.235,-0.007084285565867265,-5.799490826223757e-6,0.7853981633756545,0.0
0.236,-0.007146175635191376,-5.899752601186414e-6,0.7853981633756544,0.0
0.237,-0.0072083443819424,-6.001314036996981e-6,0.7853981633756545,0.0
0.238,-0.007270787756715524,-6.104182924815968e-6,0.7853981633756543,0.0
0.239,-0.007333501684039678,-6.2083669671779505e-6,0.7853981633756544,0.0
0.24,-0.007396482081907241,-6.313873792544375e-6,0.7853981633756543,0.0
0.241,-0.007459724881484497,-6.42071097086425e-6,0.7853981633756547,0.0
0.242,-0.007523226046806997,-6.5288860299269474e-6,0.785398163375654,0.0
0.243,-0.0075869815943212515,-6.638406472472434e-6,0.7853981633756546,0.0
0.244,-0.007650987612330518,-6.7492797939938676e-6,0.7853981633756545,0.0
0.245,-0.0077152402800360065,-6.861513501161013e-6,0.7853981633756544,0.0
0.246,-0.007779735886202843,-6.975115130657822e-6,0.7853981633756543,0.0
0.247,-0.007844470847363283,-7.090092268513754e-6,0.7853981633756543,0.0
0.248,-0.00790944172538266,-7.206452569646308e-6,0.7853981633756545,0.0
0.249,-0.007974645244341438,-7.324203777682621e-6,0.7853981633756546,0.0
0.25,-0.008040078306623677,-7.443353744804922e-6,0.7853981633756544,0.0
0.251,-0.008105738008169716,-7.563910451546113e-6,0.7853981633756543,0.0
0.252,-0.008171621652766525,-7.685882026547183e-6,0.7853981633756542,0.0
0.253,-0.008237726765291775,-7.809276765977004e-6,0.7853981633756543,0.0
0.254,-0.008304051103890764,-7.934103152604753e-6,0.7853981633756545,0.0
0.255,-0.00837059267098672,-8.060369874428666e-6,0.7853981633756545,0.0
0.256,-0.008437349723089405,-8.188085842704158e-6,0.7853981633756544,0.0
0.257,-0.008504320779285646,-8.317260209290186e-6,0.7853981633756544,0.0
0.258,-0.008571504628490434,-8.44790238317076e-6,0.7853981633756545,0.0
0.259,-0.008638900335280919,-8.580022046110816e-6,0.7853981633756546,0.0
0.26,-0.008706507244416795,-8.713629167333287e-6,0.7853981633756546,0.0
0.261,-0.008774324983882753,-8.848734017073354e-6,0.7853981633756546,0.0
0.262,-0.008842353466632868,-8.985347178973053e-6,0.7853981633756548,0.0
0.263,-0.008910592890807756,-9.123479561230774e-6,0.7853981633756546,0.0
0.264,-0.008979043738597259,-9.2631424064662e-6,0.7853981633756544,0.0
0.265,-0.00904770677368294,-9.404347300101187e-6,0.7853981633756543,0.0
0.266,-0.009116583037297676,-9.547106177398845e-6,0.7853981633756545,0.0
0.267,-0.009185673842932118,-9.691431328936583e-6,0.7853981633756543,0.0
0.268,-0.009254980769720422,-9.837335404562584e-6,0.7853981633756544,0.0
0.269,-0.009324505654514148,-9.98483141578712e-6,0.7853981633756544,0.0
