Time,Y-Force,Work Integrand,Mass,Mass error
0.0,2.886579864025407e-15,3.5998900258307764e-21,0.7853957341604751,0.0
0.001,-3.236227949177106e-6,-5.1311127422866865e-12,0.7853957341604749,0.0
0.002,-2.4792092254255493e-5,-1.5721334801208683e-10,0.7853957341604758,0.0
0.003,-7.834392736261186e-5,-1.1178853797234444e-9,0.7853957341604754,0.0
0.004,-0.00017064530933597055,-4.329744107671874e-9,0.7853957341604755,0.0
0.005,-0.00030145060410746716,-1.1954854465261622e-8,0.7853957341604757,0.0
0.006,-0.0004653027329217796,-2.6581490381483597e-8,0.7853957341604757,0.0
0.007,-0.0006543929062012843,-5.089887195842079e-8,0.7853957341604755,0.0
0.008,-0.0008615059055379071,-8.753624546138021e-8,0.7853957341604757,0.0
0.009,-0.0010822045608687159,-1.3916603628754938e-7,0.7853957341604757,0.0
0.01,-0.0013157813012427688,-2.0883625217641517e-7,0.7853957341604759,0.0
0.011,-0.0015649534587387492,-3.003904270936571e-7,0.7853957341604754,0.0
0.012,-0.0018346474518604605,-4.1879884464524064e-7,0.785395734160476,0.0
0.013,-0.002130406035482979,-5.702692135386989e-7,0.7853957341604754,0.0
0.014,-0.002456941624111364,-7.620997322793643e-7,0.7853957341604758,0.0
0.015,-0.002817195488819424,-1.0023367052913626e-6,0.7853957341604761,0.0
0.016,-0.0032120336060603716,-1.299362174207036e-6,0.7853957341604758,0.0
0.017,-0.003640501844720312,-1.661545791303994e-6,0.7853957341604757,0.0
0.018,-0.004100434103154749,-2.097056237230642e-6,0.7853957341604756,0.0
0.019,-0.004589174036008226,-2.6138650165935615e-6,0.7853957341604761,0.0
0.02,-0.00510421525354654,-3.2199168798292734e-6,0.7853957341604759,0.0
0.021,-0.005643647920922312,-3.923404853577823e-6,0.785395734160476,0.0
0.022,-0.006206382642472752,-4.7330780893678004e-6,0.7853957341604756,0.0
0.023,-0.006792179964120404,-5.658520021302677e-6,0.7853957341604763,0.0
0.024,-0.0074015387258625776,-6.710351056603866e-6,0.7853957341604761,0.0
0.025,-0.008035496590013347,-7.900325873885956e-6,0.7853957341604756,0.0
0.026,-0.008695385486564566,-9.241308804388854e-6,0.7853957341604758,0.0
0.027,-0.00938257547564425,-1.0747125367504759e-5,0.7853957341604763,0.0
0.028,-0.010098237546125821,-1.2432307858334466e-5,0.7853957341604757,0.0
0.029,-0.010843156730940828,-1.4311777607980752e-5,0.7853957341604758,0.0
0.03,-0.011617625337213333,-1.640052971325738e-5,0.7853957341604756,0.0
0.031,-0.01242143663675277,-1.871339745195509e-5,0.7853957341604755,0.0
0.032,-0.013253980994670567,-2.126496442645125e-5,0.7853957341604757,0.0
0.033,-0.014114423282701072,-2.40696604641166e-5,0.7853957341604756,0.0
0.034,-0.015001919999814595,-2.7142029275956407e-5,0.7853957341604763,0.0
0.035,-0.015915824201999884,-3.049710613217422e-5,0.7853957341604758,0.0
0.036,-0.016855830214244305,-3.415080897485297e-5,0.7853957341604756,0.0
0.037,-0.017822027271428897,-3.81202389738277e-5,0.7853957341604751,0.0
0.038,-0.018814856273751124,-4.2423809999077994e-5,0.7853957341604754,0.0
0.039,-0.019834988929669173,-4.7081173812941936e-5,0.7853957341604758,0.0
0.04,-0.020883166364863426,-5.211296407519033e-5,0.7853957341604758,0.0
0.041,-0.021960040378127044,-5.754043014379604e-5,0.7853957341604756,0.0
0.042,-0.023066054535382463,-6.338505734958559e-5,0.7853957341604756,0.0
0.043,-0.024201387464791724,-6.966826799897647e-5,0.785395734160476,0.0
0.044,-0.02536596240228972,-7.641126994962534e-5,0.7853957341604758,0.0
0.045,-0.026559510702752087,-8.363507739718966e-5,0.7853957341604761,0.0
0.046,-0.027781666593096555,-9.136068464092291e-5,0.7853957341604761,0.0
0.047,-0.0290320674085065,-9.960933972481562e-5,0.7853957341604758,0.0
0.048,-0.030310437109242194,-0.00010840284797802423,0.785395734160476,0.0
0.049,-0.03161663867002762,-0.00011776383684782964,0.7853957341604758,0.0
0.05,-0.032950690131241966,-0.00012771592947150804,0.7853957341604756,0.0
0.051,-0.03431274730590217,-0.0001382837989573624,0.7853957341604755,0.0
0.052,-0.035703061898049615,-0.00014949310181143743,0.7853957341604758,0.0
0.053,-0.03712192666512948,-0.0001613703121441162,0.7853957341604763,0.0
0.054,-0.038569619540419486,-0.00017394249495812988,0.7853957341604755,0.0
0.055,-0.040046356966409125,-0.00018723706542292298,0.7853957341604761,0.0
0.056,-0.041552263761579944,-0.00020128158124123243,0.7853957341604757,0.0
0.057,-0.04308736323264051,-0.00021610360743421798,0.7853957341604757,0.0
0.058,-0.04465158743726727,-0.00023173067827747182,0.7853957341604759,0.0
0.059,-0.04624480396255848,-0.0002481903618036449,0.785395734160476,0.0
0.06,-0.04786685279945746,-0.0002655104114498343,0.7853957341604756,0.0
0.061,-0.04951758533218009,-0.00028371897110008194,0.7853957341604758,0.0
0.062,-0.05119689745481426,-0.00030284478809028924,0.7853957341604758,0.0
0.063,-0.052904750427291924,-0.0003229173867939899,0.7853957341604757,0.0
0.064,-0.054641175979130985,-0.00034396716419465324,0.7853957341604761,0.0
0.065,-0.05640626572437202,-0.0003660253866932953,0.785395734160476,0.0
0.066,-0.05820014833920384,-0.0003891240901762027,0.7853957341604761,0.0
0.067,-0.06002296038932653,-0.00041329590750943234,0.7853957341604754,0.0
0.068,-0.06187481764372493,-0.0004385738636674781,0.7853957341604761,0.0
0.069,-0.063755793036814,-0.0004649911847731652,0.7853957341604758,0.0
0.07,-0.06566590541804129,-0.0004925811622306531,0.7853957341604758,0.0
0.071,-0.06760512044752454,-0.0005213770985549055,0.7853957341604761,0.0
0.072,-0.06957336218230825,-0.0005514123414488842,0.7853957341604757,0.0
0.073,-0.07157053170501304,-0.0005827203922601689,0.7853957341604756,0.0
0.074,-0.07359652800992933,-0.0006153350589932927,0.785395734160476,0.0
0.075,-0.07565126640927722,-0.0006492906159395323,0.7853957341604753,0.0
0.076,-0.07773469079684125,-0.0006846219329463329,0.7853957341604758,0.0
0.077,-0.07984677783875238,-0.0007213645464367417,0.7853957341604758,0.0
0.078,-0.08198753309385354,-0.0007595546588336222,0.7853957341604757,0.0
0.079,-0.08415698076359202,-0.0007992290694277503,0.7853957341604758,0.0
0.08,-0.08635514991191218,-0.0008404250543073786,0.7853957341604756,0.0
0.081,-0.08858206041542571,-0.000883180222771153,0.7853957341604759,0.0
0.082,-0.09083771160552434,-0.0009275323809688069,0.7853957341604758,0.0
0.083,-0.0931220756903064,-0.0009735194300707507,0.7853957341604758,0.0
0.084,-0.09543509683276952,-0.0010211793171966566,0.7853957341604754,0.0
0.085,-0.0977766954922119,-0.0010705500448633595,0.7853957341604759,0.0
0.086,-0.10014677657117699,-0.0011216697316581373,0.7853957341604753,0.0
0.087,-0.10254523925218106,-0.0011745767060590048,0.7853957341604758,0.0
0.088,-0.10497198625734305,-0.001229309609049302,0.7853957341604754,0.0
0.089,-0.1074269306103579,-0.001285907480587262,0.785395734160476,0.0
0.09,-0.10990999870576657,-0.0013444098099751594,0.7853957341604761,0.0
0.091,-0.11242112940519045,-0.0014048565393102314,0.7853957341604756,0.0
0.092,-0.11496026976545481,-0.0014672880202052808,0.7853957341604757,0.0
0.093,-0.11752736866370928,-0.0015317449342049875,0.7853957341604761,0.0
0.094,-0.1201223698959899,-0.0015982681944796337,0.7853957341604755,0.0
0.095,-0.12274520625276075,-0.0016668988490275097,0.7853957341604758,0.0
0.096,-0.12539579567898151,-0.0017376780035012907,0.7853957341604765,0.0
0.097,-0.12807404003614842,-0.001810646775778097,0.7853957341604759,0.0
0.098,-0.13077982635737606,-0.001885846286275578,0.785395734160476,0.0
0.099,-0.13351302997125436,-0.001963317679832429,0.7853957341604758,0.0
0.1,-0.13627351856569314,-0.0020431021685940656,0.7853957341604763,0.0
0.101,-0.13906115620509274,-0.002125241081978745,0.7853957341604758,0.0
0.102,-0.14187580647649845,-0.0022097759098504404,0.7853957341604755,0.0
0.103,-0.14471733425125066,-0.0022967483280012177,0.7853957341604759,0.0
0.104,-0.14758560591452063,-0.0023862001999624648,0.7853957341604759,0.0
0.105,-0.15048048824887506,-0.0024781735546569768,0.785395734160476,0.0
0.106,-0.15340184639499355,-0.0025727105442939803,0.7853957341604766,0.0
0.107,-0.1563495414214764,-0.002669853390228339,0.785395734160476,0.0
0.108,-0.15932342801710409,-0.002769644325822187,0.7853957341604755,0.0
0.109,-0.16232335270012155,-0.002872125544641998,0.7853957341604755,0.0
0.11,-0.16534915276056505,-0.002977339160013165,0.7853957341604753,0.0
0.111,-0.16840065595963427,-0.0030853271786743207,0.7853957341604753,0.0
0.112,-0.17147768084610915,-0.0031961314878187833,0.7853957341604754,0.0
0.113,-0.17458003744296713,-0.003309793851915578,0.7853957341604763,0.0
0.114,-0.17770752802496248,-0.0034263559139645246,0.7853957341604757,0.0
0.115,-0.18085994774796266,-0.0035458591955401728,0.7853957341604758,0.0
0.116,-0.18403708498768334,-0.003668345091159656,0.7853957341604759,0.0
0.117,-0.18723872137111575,-0.003793854854747529,0.7853957341604755,0.0
0.118,-0.19046463160293725,-0.003922429578711424,0.7853957341604753,0.0
0.119,-0.1937145832687437,-0.004054110168574106,0.7853957341604754,0.0
0.12,-0.19698833681316352,-0.004188937317551253,0.7853957341604756,0.0
0.121,-0.2002856458361264,-0.004326951485432249,0.7853957341604757,0.0
0.122,-0.20360625773551733,-0.004468192884519898,0.7853957341604756,0.0
0.123,-0.20694991458085843,-0.004612701472584014,0.7853957341604757,0.0
0.124,-0.21031635396710247,-0.004760516949466789,0.785395734160476,0.0
0.125,-0.21370530951407685,-0.004911678751137294,0.7853957341604759,0.0
0.126,-0.2171165106747548,-0.005066226033467906,0.7853957341604758,0.0
0.127,-0.22054968160577149,-0.005224197638462748,0.7853957341604758,0.0
0.128,-0.224004539026039,-0.005385632038229289,0.7853957341604761,0.0
0.129,-0.2274807892088584,-0.005550567256279535,0.7853957341604751,0.0
0.13,-0.23097812447433963,-0.005719040770931081,0.7853957341604753,0.0
0.131,-0.23449621971964696,-0.005891089410498804,0.7853957341604757,0.0
0.132,-0.238034729604643,-0.006066749253499339,0.7853957341604756,0.0
0.133,-0.24159328697444304,-0.006246055548324445,0.7853957341604758,0.0
0.134,-0.24517150295087287,-0.006429042665324923,0.7853957341604754,0.0
0.135,-0.24876896888177547,-0.006615744090105458,0.7853957341604756,0.0
0.136,-0.25238526004516226,-0.006806192460679195,0.7853957341604758,0.0
0.137,-0.25601994071110146,-0.007000419643971689,0.7853957341604761,0.0
0.138,-0.25967256991886656,-0.007198456840194191,0.7853957341604758,0.0
0.139,-0.2633427071679806,-0.007400334697910755,0.7853957341604759,0.0
0.14,-0.2670299171728613,-0.007606083419108581,0.7853957341604753,0.0
0.141,-0.27073377289601763,-0.007815732832713265,0.7853957341604757,0.0
0.142,-0.27445385624400753,-0.00802931241689923,0.7853957341604758,0.0
0.143,-0.27818975605686935,-0.008246851254945668,0.7853957341604759,0.0
0.144,-0.2819410633168006,-0.00846837791573398,0.7853957341604755,0.0
0.145,-0.2857073638081171,-0.00869392025759039,0.7853957341604761,0.0
0.146,-0.2894882287498225,-0.008923505162271347,0.7853957341604756,0.0
0.147,-0.2932832041650333,-0.009157158213731122,0.7853957341604759,0.0
0.148,-0.2970917999287779,-0.00939490334324658,0.7853957341604756,0.0
0.149,-0.30091347953328174,-0.009636762467914669,0.7853957341604759,0.0
0.15,-0.3047476516206098,-0.009882755153041285,0.7853957341604758,0.0
0.151,-0.30859366425361223,-0.010132898330114118,0.7853957341604759,0.0
0.152,-0.31245080273239356,-0.010387206100683732,0.7853957341604758,0.0
0.153,-0.3163182915218943,-0.01064568965239384,0.7853957341604764,0.0
0.154,-0.3201953005502485,-0.01090835730666008,0.7853957341604757,0.0
0.155,-0.32408095578411367,-0.01117521470821567,0.7853957341604753,0.0
0.156,-0.327974353605999,-0.011446265155303233,0.7853957341604759,0.0
0.157,-0.3318745781341833,-0.01172151005618785,0.7853957341604757,0.0
0.158,-0.3357807202634625,-0.012000949483632131,0.7853957341604758,0.0
0.159,-0.3396918968930125,-0.01228458278494331,0.7853957341604753,0.0
0.16,-0.3436072685735059,-0.012572409192257612,0.785395734160476,0.0
0.161,-0.3475260536795518,-0.012864428367160903,0.7853957341604758,0.0
0.162,-0.3514475372188193,-0.013160640806905956,0.7853957341604755,0.0
0.163,-0.3553710725481185,-0.013461048037702986,0.7853957341604754,0.0
0.164,-0.3592960745912571,-0.01376565252501753,0.7853957341604764,0.0
0.165,-0.3632220036425322,-0.014074457242311413,0.785395734160476,0.0
0.166,-0.3671483394792924,-0.014387464858451032,0.7853957341604754,0.0
0.167,-0.3710745462606744,-0.014704676529619137,0.7853957341604758,0.0
0.168,-0.37500002950788214,-0.01502609031264186,0.7853957341604754,0.0
0.169,-0.37892408727482896,-0.01535169925103537,0.7853957341604759,0.0
0.17,-0.3828458583495091,-0.015681489219821036,0.785395734160476,0.0
0.171,-0.3867642708965714,-0.01601543664693297,0.7853957341604759,0.0
0.172,-0.39067799528878333,-0.01635350625430634,0.785395734160476,0.0
0.173,-0.3945854049252968,-0.016695648977358327,0.7853957341604758,0.0
0.174,-0.39848454857130455,-0.017041800225179208,0.785395734160476,0.0
0.175,-0.40237313718030054,-0.01739187863403652,0.7853957341604755,0.0
0.176,-0.406248547314232,-0.017745785443849256,0.7853957341604755,0.0
0.177,-0.4101078422251183,-0.01810340459256636,0.7853957341604759,0.0
0.178,-0.41394781049260465,-0.018464603579601363,0.7853957341604757,0.0
0.179,-0.4177650209278687,-0.01882923510025867,0.7853957341604757,0.0
0.18,-0.42155589135476423,-0.019197139402677116,0.7853957341604755,0.0
0.181,-0.42531676795747053,-0.01956814727135362,0.7853957341604758,0.0
0.182,-0.4290440112094648,-0.01994208350075362,0.785395734160476,0.0
0.183,-0.4327340840178385,-0.02031877069182904,0.785395734160476,0.0
0.184,-0.4363836376453383,-0.02069803318553172,0.7853957341604756,0.0
0.185,-0.43998959119994396,-0.021079700941564652,0.7853957341604755,0.0
0.186,-0.4435492009727229,-0.021463613177380624,0.7853957341604761,0.0
0.187,-0.4470601166064605,-0.021849621600674503,0.7853957341604761,0.0
0.188,-0.4505204219263921,-0.02223759309634296,0.7853957341604758,0.0
0.189,-0.45392865919130343,-0.022627411763612014,0.7853957341604759,0.0
0.19,-0.45728383646172055,-0.02301898023802186,0.7853957341604766,0.0
0.191,-0.4605854186708691,-0.023412220273428222,0.7853957341604754,0.0
0.192,-0.46383330377360743,-0.023807072598487494,0.7853957341604751,0.0
0.193,-0.4670277859980374,-0.02420349609797426,0.7853957341604758,0.0
0.194,-0.4701695087091796,-0.02460146639977214,0.7853957341604756,0.0
0.195,-0.47325940969926894,-0.025000973972156858,0.7853957341604764,0.0
0.196,-0.47629866184361636,-0.025402021852101296,0.7853957341604755,0.0
0.197,-0.47928861201432327,-0.025804623133469762,0.7853957341604756,0.0
0.198,-0.4822307209445509,-0.026208798344287916,0.7853957341604758,0.0
0.199,-0.4851265064103628,-0.026614572835396595,0.785395734160476,0.0
0.2,-0.48797749167725724,-0.027021974289805115,0.7853957341604761,0.0
0.201,-0.4907851606786007,-0.027431030444279726,0.7853957341604758,0.0
0.202,-0.49355092088962227,-0.027841767093731734,0.7853957341604759,0.0
0.203,-0.49627607436603294,-0.028254206426458227,0.7853957341604755,0.0
0.204,-0.4989617969610336,-0.028668365715817365,0.7853957341604751,0.0
0.205,-0.5016091253413467,-0.029084256372977423,0.7853957341604759,0.0
0.206,-0.5042189511086969,-0.029501883347050235,0.7853957341604756,0.0
0.207,-0.5067920211051673,-0.029921244844142207,0.7853957341604761,0.0
0.208,-0.5093289428423297,-0.03034233232592245,0.7853957341604765,0.0
0.209,-0.5118301939355349,-0.030765130741443485,0.7853957341604756,0.0
0.21,-0.5142961344388537,-0.031189618942808202,0.7853957341604757,0.0
0.211,-0.5167270210457018,-0.0316157702353646,0.7853957341604755,0.0
0.212,-0.5191230222307373,-0.03204355301581859,0.7853957341604761,0.0
0.213,-0.5214842335435647,-0.03247293145621319,0.785395734160476,0.0
0.214,-0.5238106924119501,-0.03290386619744732,0.7853957341604759,0.0
0.215,-0.5261023919582342,-0.03333631502232209,0.7853957341604755,0.0
0.216,-0.5283592934717405,-0.033770233484489695,0.7853957341604756,0.0
0.217,-0.5305813373053906,-0.034205575475840654,0.7853957341604761,0.0
0.218,-0.5327684520749896,-0.034642293720566986,0.7853957341604759,0.0
0.219,-0.5349205621329091,-0.03508034018927928,0.7853957341604758,0.0
0.22,-0.5370375933654806,-0.035519666431093715,0.7853957341604757,0.0
0.221,-0.5391194774247053,-0.035960223825473675,0.7853957341604758,0.0
0.222,-0.5411661545518635,-0.03640196375884718,0.7853957341604757,0.0
0.223,-0.5431775751826582,-0.03684483773356688,0.7853957341604757,0.0
0.224,-0.5451537005426562,-0.03728879741858877,0.7853957341604758,0.0
0.225,-0.547094502447357,-0.037733794652389366,0.7853957341604763,0.0
0.226,-0.5489999625157992,-0.038179781408987826,0.7853957341604755,0.0
0.227,-0.5508700709908592,-0.0386267097377184,0.7853957341604757,0.0
0.228,-0.552704825336187,-0.03907453168655175,0.7853957341604758,0.0
0.229,-0.5545042287515232,-0.03952319921749779,0.7853957341604757,0.0
0.23,-0.5562682887179102,-0.03997266412114298,0.7853957341604758,0.0
0.231,-0.557997015654182,-0.040422877935733195,0.7853957341604757,0.0
0.232,-0.5596904217391916,-0.04087379187467789,0.7853957341604763,0.0
0.233,-0.5613485199310317,-0.04132535676497798,0.7853957341604756,0.0
0.234,-0.5629713231967224,-0.04177752299795207,0.7853957341604755,0.0
0.235,-0.564558843952301,-0.042230240492764984,0.7853957341604759,0.0
0.236,-0.5661110937044014,-0.04268345867267992,0.7853957341604759,0.0
0.237,-0.5676280828792182,-0.04313712645353657,0.7853957341604759,0.0
0.238,-0.569109820820543,-0.04359119224367898,0.7853957341604759,0.0
0.239,-0.5705563159374687,-0.04404560395440496,0.7853957341604758,0.0
0.24,-0.5719675759800076,-0.044500309019820924,0.7853957341604753,0.0
0.241,-0.5733436084206066,-0.04495525442487328,0.7853957341604757,0.0
0.242,-0.5746844209178275,-0.04541038674019353,0.785395734160476,0.0
0.243,-0.5759900218387239,-0.04586565216227037,0.7853957341604757,0.0
0.244,-0.5772604208160262,-0.04632099655741044,0.7853957341604759,0.0
0.245,-0.5784956293177206,-0.046776365507930066,0.7853957341604763,0.0
0.246,-0.5796956612084642,-0.04723170435908977,0.7853957341604755,0.0
0.247,-0.5808605332851788,-0.04768695826543755,0.7853957341604757,0.0
0.248,-0.5819902657731705,-0.048142072235430024,0.7853957341604758,0.0
0.249,-0.583084882773259,-0.04859699117350211,0.7853957341604758,0.0
0.25,-0.5841444126549764,-0.049051659919066584,0.785395734160475,0.0
0.251,-0.5851688883954188,-0.04950602328225247,0.7853957341604758,0.0
0.252,-0.5861583478672403,-0.04996002607657252,0.7853957341604759,0.0
0.253,-0.5871128340832203,-0.05041361314898122,0.7853957341604757,0.0
0.254,-0.5880323954072526,-0.05086672940811586,0.7853957341604758,0.0
0.255,-0.5889170857437361,-0.05131931985170811,0.7853957341604756,0.0
0.256,-0.5897669647183076,-0.051771329594297186,0.785395734160476,0.0
0.257,-0.5905820978621659,-0.05222270389643206,0.7853957341604757,0.0
0.258,-0.5913625568112849,-0.052673388196447304,0.7853957341604756,0.0
0.259,-0.5921084195280976,-0.05312332814569829,0.7853957341604755,0.0
0.26,-0.5928197705500685,-0.05357246964777192,0.7853957341604756,0.0
0.261,-0.593496701264064,-0.054020758901744514,0.7853957341604758,0.0
0.262,-0.5941393102005589,-0.054468142449032156,0.7853957341604753,0.0
0.263,-0.5947477033364115,-0.054914567222809414,0.7853957341604757,0.0
0.264,-0.5953219943911385,-0.05535998059852275,0.7853957341604759,0.0
0.265,-0.5958623050990467,-0.05580433044365832,0.7853957341604764,0.0
0.266,-0.5963687654392826,-0.05624756516479414,0.7853957341604758,0.0
0.267,-0.5968415138086355,-0.05668963375010167,0.785395734160476,0.0
0.268,-0.5972806971263716,-0.057130485805865425,0.7853957341604757,0.0
0.269,-0.5976864708679136,-0.05757007158624678,0.7853957341604757,0.0
0.27,-0.5980589990327434,-0.05800834201641896,0.7853957341604757,0.0
0.271,-0.5983984540607463,-0.05844524871014533,0.7853957341604757,0.0
0.272,-0.5987050167200517,-0.058880743983886374,0.785395734160476,0.0
0.273,-0.5989788759952452,-0.059314780870301884,0.7853957341604757,0.0
0.274,-0.599220229008568,-0.05974731313458877,0.7853957341604755,0.0
0.275,-0.5994292810060904,-0.06017829529725952,0.785395734160476,0.0
0.276,-0.5996062454365471,-0.06060768266671701,0.7853957341604757,0.0
0.277,-0.5997513441419847,-0.06103543138424711,0.7853957341604761,0.0
