Time,Y-Force,Work Integrand,Mass,Mass error
0.0,-2.220446049250313e-15,0.0,0.7847868925780568,0.0
0.001,-8.903950572403119e-7,-1.334924797316713e-12,0.7847868925780569,0.0
0.002,-7.084872348350757e-6,-4.246672486251757e-11,0.7847868925780568,0.0
0.003,-2.3742370271584434e-5,-3.2004121566981715e-10,0.7847868925780568,0.0
0.004,-5.579207603423342e-5,-1.3363318051684125e-9,0.7847868925780568,0.0
0.005,-0.00010786120168626567,-4.034683075403731e-9,0.7847868925780569,0.0
0.006,-0.00018421103319976595,-9.917553605610918e-9,0.7847868925780567,0.0
0.007,-0.00028868243526591897,-2.1143895435719873e-8,0.7847868925780569,0.0
0.008,-0.00042465169855354645,-4.060349680871239e-8,0.7847868925780568,0.0
0.009,-0.0005949973243200013,-7.19668601179349e-8,0.7847868925780567,0.0
0.01,-0.0008020780551785123,-1.197101497360303e-7,0.7847868925780567,0.0
0.011,-0.001047722186259481,-1.8911568813316688e-7,0.7847868925780569,0.0
0.012,-0.0013332279310946937,-2.8624936971666584e-7,0.7847868925780568,0.0
0.013,-0.0016593743760342505,-4.1791717019510396e-7,0.7847868925780569,0.0
0.014,-0.0020264423392095665,-5.91603629395256e-7,0.7847868925780567,0.0
0.015,-0.002434244259028162,-8.153957566413642e-7,0.784786892578057,0.0
0.016,-0.0028821620751333654,-1.0978962349560747e-6,0.7847868925780569,0.0
0.017,-0.003369191934432525,-1.4481300735955886e-6,0.7847868925780568,0.0
0.018,-0.0038939944570923757,-1.87544897439231e-6,0.7847868925780567,0.0
0.019,-0.004454949233267058,-2.38943763722051e-6,0.7847868925780568,0.0
0.02,-0.005050212190746084,-2.999826041304209e-6,0.7847868925780569,0.0
0.021,-0.005677774475423281,-3.7164114134332314e-6,0.7847868925780567,0.0
0.022,-0.006335521519178933,-4.5489931480729474e-6,0.7847868925780568,0.0
0.023,-0.007021291030834043,-5.507323396987656e-6,0.7847868925780568,0.0
0.024,-0.007732928733290123,-6.601075420456515e-6,0.7847868925780568,0.0
0.025,-0.00846834077862546,-7.839831111461706e-6,0.7847868925780567,0.0
0.026,-0.00922554190165048,-9.233088394927213e-6,0.7847868925780568,0.0
0.027,-0.010002698514708808,-1.0790288489680167e-5,0.7847868925780568,0.0
0.028,-0.01079816609983375,-1.2520862326736732e-5,0.7847868925780566,0.0
0.029,-0.011610520414186531,-1.4434294765712508e-5,0.7847868925780569,0.0
0.03,-0.01243858218621785,-1.6540204662118634e-5,0.7847868925780567,0.0
0.031,-0.01328143514037139,-1.8848438329149148e-5,0.7847868925780569,0.0
0.032,-0.014138437342767762,-2.1369173522352986e-5,0.7847868925780569,0.0
0.033,-0.015009226006242216,-2.4113030764957508e-5,0.7847868925780569,0.0
0.034,-0.01589371602755163,-2.7091188630710798e-5,0.784786892578057,0.0
0.035,-0.01679209264950554,-3.031549951419861e-5,0.7847868925780567,0.0
0.036,-0.017704798744999195,-3.3798602442594756e-5,0.7847868925780567,0.0
0.037,-0.018632517306152785,-3.7554029613849974e-5,0.784786892578057,0.0
0.038,-0.019576149789700903,-4.1596303576038086e-5,0.7847868925780568,0.0
0.039,-0.02053679101877126,-4.5941022279497555e-5,0.7847868925780568,0.0
0.04,-0.021515701371200624,-5.0604929625055854e-5,0.7847868925780567,0.0
0.041,-0.022514276996135063,-5.560596958211275e-5,0.7847868925780569,0.0
0.042,-0.023534018795352996,-6.0963322444112025e-5,0.784786892578057,0.0
0.043,-0.02457650088366581,-6.669742230902553e-5,0.7847868925780568,0.0
0.044,-0.025643339207143345,-7.282995540226593e-5,0.7847868925780568,0.0
0.045,-0.02673616094801856,-7.938383937982144e-5,0.7847868925780568,0.0
0.046,-0.02785657528759078,-8.638318425366158e-5,0.7847868925780569,0.0
0.047,-0.02900614603006524,-9.38532360461649e-5,0.784786892578057,0.0
0.048,-0.030186366516802288,-0.00010182030469771397,0.7847868925780569,0.0
0.049,-0.03139863718255986,-0.00011031167811358794,0.7847868925780571,0.0
0.05,-0.032644246026285906,-0.000119355524533616,0.7847868925780568,0.0
0.051,-0.03392435218947387,-0.00012898078563552962,0.784786892578057,0.0
0.052,-0.03523997275818047,-0.00013921706293999227,0.7847868925780568,0.0
0.053,-0.036591972830795516,-0.00015009450016821753,0.784786892578057,0.0
0.054,-0.037981058825583336,-0.0001616436642179215,0.784786892578057,0.0
0.055,-0.039407774939296036,-0.00017389542737040672,0.7847868925780571,0.0
0.056,-0.040872502613165995,-0.0001868808532281309,0.784786892578057,0.0
0.057,-0.042375462814605136,-0.00020063108871320665,0.784786892578057,0.0
0.058,-0.043916720903872886,-0.00021517726424418251,0.784786892578057,0.0
0.059,-0.045496193823796105,-0.00023055040395744512,0.7847868925780569,0.0
0.06,-0.04711365932747613,-0.00024678134755732467,0.784786892578057,0.0
0.061,-0.04876876694355703,-0.00026390068507823813,0.784786892578057,0.0
0.062,-0.05046105037103077,-0.00028193870552974815,0.784786892578057,0.0
0.063,-0.052189940994513684,-0.00030092536007895673,0.7847868925780568,0.0
0.064,-0.053954782216029784,-0.0003208902401133848,0.784786892578057,0.0
0.065,-0.05575484430970734,-0.0003418625702238491,0.784786892578057,0.0
0.066,-0.05758933952074141,-0.00036387121586239565,0.7847868925780568,0.0
0.067,-0.05945743714843266,-0.00038694470516215454,0.784786892578057,0.0
0.068,-0.061358278374147535,-0.00041111126416379373,0.7847868925780569,0.0
0.069,-0.06329099061870291,-0.0004363988644755998,0.784786892578057,0.0
0.07,-0.06525470123751376,-0.00046283528220242287,0.784786892578057,0.0
0.071,-0.06724855038750199,-0.0004904481668167766,0.784786892578057,0.0
0.072,-0.06927170292410212,-0.0005192651185080138,0.7847868925780571,0.0
0.073,-0.07132335921169819,-0.0005493137724358783,0.7847868925780569,0.0
0.074,-0.07340276475411578,-0.0005806218882317381,0.784786892578057,0.0
0.075,-0.07550921857422921,-0.0006132174430305837,0.7847868925780568,0.0
0.076,-0.07764208029310637,-0.0006471287262804389,0.784786892578057,0.0
0.077,-0.0798007758781889,-0.0006823844345621721,0.784786892578057,0.0
0.078,-0.08198480204878233,-0.0007190137646608183,0.784786892578057,0.0
0.079,-0.0841937293432018,-0.0007570465031552023,0.784786892578057,0.0
0.08,-0.08642720386772318,-0.0007965131108449569,0.7847868925780568,0.0
0.081,-0.08868494776119862,-0.0008374448003994825,0.7847868925780569,0.0
0.082,-0.09096675842249269,-0.0008798736057058325,0.784786892578057,0.0
0.083,-0.09327250655966202,-0.0009238324415030939,0.7847868925780569,0.0
0.084,-0.09560213313110788,-0.0009693551520231491,0.7847868925780569,0.0
0.085,-0.0979556452593986,-0.0010164765475150356,0.7847868925780569,0.0
0.086,-0.10033311120820398,-0.0010652324277068415,0.7847868925780568,0.0
0.087,-0.1027346545220773,-0.0011156595914612738,0.7847868925780569,0.0
0.088,-0.10516044743723807,-0.0011677958321040446,0.784786892578057,0.0
0.089,-0.10761070367971914,-0.0012216799181488033,0.784786892578057,0.0
0.09,-0.11008567077392772,-0.0012773515594075302,0.7847868925780568,0.0
0.091,-0.11258562199135769,-0.0013348513587534208,0.7847868925780569,0.0
0.092,-0.11511084807391825,-0.0013942207500977424,0.7847868925780569,0.0
0.093,-0.11766164887045338,-0.0014555019234453737,0.7847868925780571,0.0
0.094,-0.12023832502708132,-0.0015187377381932765,0.784786892578057,0.0
0.095,-0.12284116987289861,-0.0015839716261395326,0.784786892578057,0.0
0.096,-0.12547046164071363,-0.0016512474859586082,0.784786892578057,0.0
0.097,-0.12812645615948437,-0.0017206095711650715,0.7847868925780571,0.0
0.098,-0.13080938014888943,-0.0017921023738340716,0.784786892578057,0.0
0.099,-0.13351942523832383,-0.001865770506549215,0.784786892578057,0.0
0.1,-0.13625674282188172,-0.0019416585852117599,0.784786892578057,0.0
0.101,-0.13902143984752957,-0.002019811115454684,0.7847868925780571,0.0
0.102,-0.14181357562310115,-0.0021002723854542243,0.784786892578057,0.0
0.103,-0.1446331597036723,-0.002183086367916691,0.7847868925780573,0.0
0.104,-0.14748015090507183,-0.0022682966339332214,0.7847868925780571,0.0
0.105,-0.15035445746638487,-0.0023559462812320145,0.7847868925780572,0.0
0.106,-0.15325593836130036,-0.002446077879128844,0.7847868925780571,0.0
0.107,-0.1561844057342494,-0.0025387334321615163,0.784786892578057,0.0
0.108,-0.15913962841258922,-0.0026339543640165122,0.7847868925780569,0.0
0.109,-0.16212133642208704,-0.00273178152290722,0.784786892578057,0.0
0.11,-0.16512922640895988,-0.0028322552090598863,0.784786892578057,0.0
0.111,-0.16816296784964857,-0.002935415224400967,0.7847868925780571,0.0
0.112,-0.1712222099087799,-0.0030413009439515387,0.7847868925780571,0.0
0.113,-0.17430658878759697,-0.0031499514078118657,0.784786892578057,0.0
0.114,-0.17741573539022149,-0.0032614054319922703,0.7847868925780571,0.0
0.115,-0.18054928312283458,-0.003375701735722013,0.784786892578057,0.0
0.116,-0.18370687563344923,-0.0034928790822739697,0.784786892578057,0.0
0.117,-0.18688817429574422,-0.0036129764297779116,0.7847868925780569,0.0
0.118,-0.19009286524110136,-0.0037360330880033266,0.7847868925780571,0.0
0.119,-0.19332066574811346,-0.003862088876659904,0.7847868925780571,0.0
0.12,-0.19657132980852232,-0.003991184280432228,0.784786892578057,0.0
0.121,-0.19984465270229812,-0.0041233605957321645,0.784786892578057,0.0
0.122,-0.20314047443325478,-0.004258660064032874,0.7847868925780571,0.0
0.123,-0.20645868189845995,-0.004397125986656508,0.7847868925780571,0.0
0.124,-0.2097992096906074,-0.004538802816021467,0.784786892578057,0.0
0.125,-0.21316203946096834,-0.004683736218624848,0.784786892578057,0.0
0.126,-0.21654719780167353,-0.004831973105436774,0.7847868925780571,0.0
0.127,-0.2199547526386203,-0.004983561625906921,0.784786892578057,0.0
0.128,-0.22338480815989614,-0.005138551122435955,0.784786892578057,0.0
0.129,-0.22683749833828415,-0.005296992042918391,0.784786892578057,0.0
0.13,-0.23031297913966498,-0.005458935809813159,0.784786892578057,0.0
0.131,-0.23381141954036,-0.005624434645123716,0.784786892578057,0.0
0.132,-0.23733299150644172,-0.005793541351655468,0.7847868925780569,0.0
0.133,-0.24087785911400283,-0.0059663090519272155,0.7847868925780572,0.0
0.134,-0.24444616701272714,-0.006142790887145297,0.7847868925780571,0.0
0.135,-0.24803802845345002,-0.0063230396796540855,0.7847868925780571,0.0
0.136,-0.25165351311487294,-0.0065071075632445186,0.7847868925780569,0.0
0.137,-0.25529263497322674,-0.006695045586606427,0.784786892578057,0.0
0.138,-0.2589553404627547,-0.006886903296018626,0.784786892578057,0.0
0.139,-0.262641497172857,-0.007082728304068281,0.7847868925780569,0.0
0.14,-0.2663508833207793,-0.00728256585175667,0.784786892578057,0.0
0.141,-0.270083178226149,-0.007486458371758292,0.784786892578057,0.0
0.142,-0.27383795399603716,-0.0076944450608482234,0.784786892578057,0.0
0.143,-0.27761466860702333,-0.007906561469584919,0.7847868925780571,0.0
0.144,-0.2814126605440892,-0.008122839117226735,0.784786892578057,0.0
0.145,-0.28523114512623904,-0.008343305139560789,0.7847868925780572,0.0
0.146,-0.2890692126154488,-0.008567981976862385,0.784786892578057,0.0
0.147,-0.2929258281703202,-0.00879688710854079,0.784786892578057,0.0
0.148,-0.2967998336690094,-0.009030032840236707,0.7847868925780571,0.0
0.149,-0.30068995138885013,-0.009267426148170665,0.7847868925780571,0.0
0.15,-0.30459478949272745,-0.009509068584475922,0.784786892578057,0.0
0.151,-0.30851284923646105,-0.009754956246067148,0.7847868925780571,0.0
0.152,-0.31244253377726405,-0.010005079808340367,0.784786892578057,0.0
0.153,-0.31638215843181294,-0.010259424623708074,0.784786892578057,0.0
0.154,-0.3203299622042799,-0.010517970883645061,0.7847868925780571,0.0
0.155,-0.32428412038054866,-0.01078069384162747,0.784786892578057,0.0
0.156,-0.3282427579647873,-0.011047564093080317,0.7847868925780569,0.0
0.157,-0.3322039637198184,-0.011318547907266052,0.7847868925780571,0.0
0.158,-0.3361658045628353,-0.011593607604964806,0.7847868925780571,0.0
0.159,-0.3401263400632395,-0.011872701974834005,0.784786892578057,0.0
0.16,-0.34408363679067744,-0.012155786720541184,0.784786892578057,0.0
0.161,-0.3480357822668503,-0.012442814930118007,0.784786892578057,0.0
0.162,-0.3519808982863082,-0.012733737558541652,0.7847868925780571,0.0
0.163,-0.3559171533870211,-0.013028503914300132,0.7847868925780569,0.0
0.164,-0.35984277427199496,-0.013327062140640514,0.7847868925780569,0.0
0.165,-0.36375605600700034,-0.013629359682368142,0.7847868925780569,0.0
0.166,-0.36765537084711397,-0.013935343729411187,0.784786892578057,0.0
0.167,-0.3715391755744406,-0.014244961628926939,0.7847868925780569,0.0
0.168,-0.3754060172613318,-0.014558161258446584,0.7847868925780571,0.0
0.169,-0.37925453740629544,-0.014874891353458985,0.784786892578057,0.0
0.17,-0.3830834744232252,-0.015195101783865878,0.784786892578057,0.0
0.171,-0.3868916644977163,-0.015518743774894206,0.7847868925780571,0.0
0.172,-0.3906780408560615,-0.01584577006930024,0.784786892578057,0.0
0.173,-0.39444163152321776,-0.016176135029003363,0.7847868925780572,0.0
0.174,-0.39818155567364677,-0.016509794675628534,0.784786892578057,0.0
0.175,-0.4018970187043509,-0.016846706670767445,0.784786892578057,0.0
0.176,-0.40558730618114547,-0.017186830238093656,0.784786892578057,0.0
0.177,-0.4092517768269519,-0.017530126030690207,0.7847868925780571,0.0
0.178,-0.4128898547353592,-0.017876555948135003,0.7847868925780571,0.0
0.179,-0.416501021001888,-0.01822608290891331,0.784786892578057,0.0
0.18,-0.42008480497115963,-0.018578670584654233,0.7847868925780571,0.0
0.181,-0.4236407752989111,-0.01893428310343015,0.7847868925780571,0.0
0.182,-0.4271685310248978,-0.01929288472994528,0.7847868925780571,0.0
0.183,-0.4306676928451174,-0.01965443953084428,0.784786892578057,0.0
0.184,-0.4341378947610739,-0.020018911033572145,0.7847868925780571,0.0
0.185,-0.43757877626917674,-0.02038626188724757,0.7847868925780571,0.0
0.186,-0.4409899752360391,-0.020756453533833596,0.7847868925780569,0.0
0.187,-0.44437112158538916,-0.021129445897540677,0.784786892578057,0.0
0.188,-0.4477218319004468,-0.021505197099870976,0.784786892578057,0.0
0.189,-0.4510417050222224,-0.021883663207030585,0.7847868925780569,0.0
0.19,-0.454330318699673,-0.022264798015616538,0.7847868925780571,0.0
0.191,-0.45758722732328705,-0.022648552881544326,0.7847868925780569,0.0
0.192,-0.4608119607490222,-0.023034876596146725,0.7847868925780571,0.0
0.193,-0.4640040241957659,-0.023423715312272775,0.7847868925780569,0.0
0.194,-0.46716289917722253,-0.02381501252206636,0.784786892578057,0.0
0.195,-0.4702880454079774,-0.024208709086936675,0.784786892578057,0.0
0.196,-0.4733789036050071,-0.02460474331908416,0.784786892578057,0.0
0.197,-0.4764348990893401,-0.02500305111282064,0.7847868925780569,0.0
0.198,-0.4794554460788554,-0.025403566122863985,0.7847868925780571,0.0
0.199,-0.48243995255251537,-0.02580621998581445,0.7847868925780569,0.0
0.2,-0.48538782555815274,-0.02621094258014009,0.7847868925780571,0.0
0.201,-0.4882984768313321,-0.026617662319252777,0.7847868925780568,0.0
0.202,-0.4911713285908408,-0.02702630647162005,0.7847868925780569,0.0
0.203,-0.4940058193774659,-0.02743680150140565,0.7847868925780569,0.0
0.204,-0.49680140980673393,-0.027849073422786363,0.784786892578057,0.0
0.205,-0.49955758811265083,-0.02826304816093453,0.7847868925780568,0.0
0.206,-0.5022738753684881,-0.028678651912646846,0.7847868925780569,0.0
0.207,-0.5049498302814062,-0.02909581149972465,0.7847868925780569,0.0
0.208,-0.507585053470657,-0.02951445470850833,0.784786892578057,0.0
0.209,-0.5101791911528544,-0.029934510609380377,0.7847868925780568,0.0
0.21,-0.5127319381732183,-0.030355909850591584,0.7847868925780569,0.0
0.211,-0.5152430403371522,-0.030778584921407753,0.7847868925780568,0.0
0.212,-0.5177122960130247,-0.031202470380324338,0.784786892578057,0.0
0.213,-0.5201395569925351,-0.03162750304489059,0.7847868925780569,0.0
0.214,-0.5225247286111729,-0.03205362214054397,0.7847868925780568,0.0
0.215,-0.5248677691458417,-0.032480769406761006,0.7847868925780568,0.0
0.216,-0.5271686885208311,-0.032908889159718346,0.7847868925780569,0.0
0.217,-0.5294275463660179,-0.03333792831155169,0.784786892578057,0.0
0.218,-0.5316444494822443,-0.03376783634718006,0.7847868925780569,0.0
0.219,-0.5338195487786872,-0.03419856526046583,0.7847868925780568,0.0
0.22,-0.5359530357546696,-0.03463006945225219,0.7847868925780568,0.0
0.221,-0.5380451386043479,-0.03506230559349657,0.784786892578057,0.0
0.222,-0.5400961180271664,-0.035495232457314424,0.7847868925780569,0.0
0.223,-0.5421062628288107,-0.035928810724251026,0.7847868925780567,0.0
0.224,-0.5440758853980228,-0.03636300276547405,0.7847868925780568,0.0
0.225,-0.5460053171433801,-0.03679777240888582,0.7847868925780568,0.0
0.226,-0.5478949039708305,-0.03723308469329267,0.7847868925780569,0.0
0.227,-0.5497450018786871,-0.03766890561585265,0.7847868925780568,0.0
0.228,-0.5515559727404677,-0.03810520187794397,0.7847868925780569,0.0
0.229,-0.5533281803393968,-0.03854194063445343,0.7847868925780569,0.0
0.23,-0.5550619867100646,-0.0389790892512176,0.784786892578057,0.0
0.231,-0.5567577488340563,-0.03941661507499489,0.7847868925780569,0.0
0.232,-0.5584158157273542,-0.03985448521993057,0.7847868925780569,0.0
0.233,-0.5600365259471882,-0.0402926663739587,0.784786892578057,0.0
0.234,-0.5616202055368036,-0.04073112462805706,0.7847868925780568,0.0
0.235,-0.5631671664165951,-0.0411698253306409,0.784786892578057,0.0
0.236,-0.5646777052208192,-0.04160873296878154,0.7847868925780571,0.0
0.237,-0.5661521025701153,-0.042047811077284974,0.784786892578057,0.0
0.238,-0.5675906227618364,-0.04248702217600575,0.784786892578057,0.0
0.239,-0.5689935138523707,-0.04292632773516325,0.7847868925780569,0.0
0.24,-0.5703610080992263,-0.043365688167800676,0.7847868925780569,0.0
0.241,-0.5716933227245513,-0.04380506284794927,0.7847868925780568,0.0
0.242,-0.5729906609572724,-0.0442444101525557,0.784786892578057,0.0
0.243,-0.5742532133072271,-0.044683687524720433,0.7847868925780569,0.0
0.244,-0.5754811590221367,-0.045122851555424864,0.784786892578057,0.0
0.245,-0.5766746676768277,-0.04556185808056054,0.7847868925780569,0.0
0.246,-0.5778339008437046,-0.04600066228981817,0.784786892578057,0.0
0.247,-0.578959013794266,-0.04643921884381724,0.784786892578057,0.0
0.248,-0.5800501571830399,-0.04687748199574515,0.7847868925780569,0.0
0.249,-0.5811074786679993,-0.04731540571376314,0.7847868925780569,0.0
0.25,-0.582131124425068,-0.04775294380049391,0.7847868925780569,0.0
0.251,-0.5831212405185098,-0.04819005000604687,0.7847868925780567,0.0
0.252,-0.5840779740939279,-0.048626678131254986,0.7847868925780569,0.0
0.253,-0.5850014743660967,-0.049062782118079296,0.7847868925780569,0.0
0.254,-0.585891893379527,-0.04949831612449174,0.784786892578057,0.0
0.255,-0.5867493865262707,-0.049933234581547026,0.7847868925780568,0.0
0.256,-0.5875741128112697,-0.05036749223081649,0.7847868925780569,0.0
0.257,-0.5883662348623502,-0.05080104414083725,0.7847868925780568,0.0
0.258,-0.5891259186886808,-0.05123384570180678,0.7847868925780569,0.0
0.259,-0.5898533331969289,-0.051665852598242024,0.7847868925780569,0.0
0.26,-0.5905486494808962,-0.052097020759905965,0.784786892578057,0.0
0.261,-0.5912120399056344,-0.05252730629185959,0.784786892578057,0.0
0.262,-0.591843677012243,-0.052956665385053614,0.784786892578057,0.0
0.263,-0.5924437322734817,-0.053385054209334926,0.784786892578057,0.0
0.264,-0.5930123747344958,-0.05381242879128323,0.7847868925780568,0.0
0.265,-0.5935497695770988,-0.05423874487982777,0.7847868925780569,0.0
0.266,-0.5940560766478709,-0.054663957802965624,0.784786892578057,0.0
0.267,-0.5945314489914395,-0.05508802231917925,0.784786892578057,0.0
0.268,-0.5949760314315413,-0.055510892467519335,0.7847868925780569,0.0
0.269,-0.5953899592423721,-0.055932521420486714,0.7847868925780569,0.0
0.27,-0.5957733569513639,-0.05635286134397649,0.784786892578057,0.0
0.271,-0.5961263373146579,-0.05677186326874295,0.784786892578057,0.0
0.272,-0.5964490005042502,-0.05718947697788512,0.7847868925780569,0.0
0.273,-0.5967414335395196,-0.05760565091442077,0.784786892578057,0.0
0.274,-0.5970037099909202,-0.05802033211273977,0.784786892578057,0.0
0.275,-0.597235889986123,-0.058433466158134995,0.784786892578057,0.0
0.276,-0.59743802054013,-0.05884499717789571,0.784786892578057,0.0
0.277,-0.597610136221892,-0.059254867866717964,0.7847868925780569,0.0
0.278,-0.5977522601699405,-0.05966301954922826,0.7847868925780569,0.0
