Time,Y-Force,Work Integrand,Mass,Mass error
0.0,0.0,0.0,0.7853594291759575,0.0
0.001,-1.6977579342380977e-9,-2.5465059559910376e-17,0.7853594291759572,0.0
0.002,-1.3573163037960967e-8,-8.1430790874646925e-16,0.7853594291759578,0.0
0.003,-4.5776481272241654e-8,-6.178897085994215e-15,0.7853594291759577,0.0
0.004,-1.084225194070143e-7,-2.6016200128826667e-14,0.7853594291759579,0.0
0.005,-2.1158461027681597e-7,-7.932439283542584e-14,0.7853594291759578,0.0
0.006,-3.652886140237399e-7,-1.9719667678865015e-13,0.7853594291759578,0.0
0.007,-5.795069619729531e-7,-4.257885416758544e-13,0.7853594291759575,0.0
0.008,-8.641528697062029e-7,-8.292549217019541e-13,0.7853594291759578,0.0
0.009,-1.2290745057264019e-6,-1.4926535332591582e-12,0.7853594291759577,0.0
0.01,-1.6840493324288275e-6,-2.524810958075979e-12,0.7853594291759575,0.0
0.011,-2.238778500807115e-6,-4.06114811240697e-12,0.7853594291759572,0.0
0.012,-2.902881316657613e-6,-6.2664615191020665e-12,0.7853594291759576,0.0
0.013,-3.6858898511127336e-6,-9.337657339377912e-12,0.7853594291759576,0.0
0.014,-4.597243575599208e-6,-1.3506434982411895e-11,0.7853594291759574,0.0
0.015,-5.646284162885706e-6,-1.9041916886839425e-11,0.7853594291759576,0.0
0.016,-6.842250359628821e-6,-2.6253221989806807e-11,0.7853594291759577,0.0
0.017,-8.19427298193176e-6,-3.549197952170595e-11,0.7853594291759577,0.0
0.018,-9.711370010823117e-6,-4.715478072440547e-11,0.7853594291759575,0.0
0.019,-1.1402441796093399e-5,-6.16855653081343e-11,0.7853594291759576,0.0
0.02,-1.3276266406236914e-5,-7.957794083690844e-11,0.7853594291759576,0.0
0.021,-1.534149508231053e-5,-1.013774317873531e-10,0.7853594291759577,0.0
0.022,-1.760664779482113e-5,-1.2768365624719435e-10,0.7853594291759578,0.0
0.023,-2.008010897558421e-5,-1.591524286931854e-10,0.7853594291759572,0.0
0.024,-2.277012334284123e-5,-1.9649778501987865e-10,0.7853594291759577,0.0
0.025,-2.568479185649508e-5,-2.40493929986956e-10,0.7853594291759576,0.0
0.026,-2.883206783854675e-5,-2.919771035563782e-10,0.7853594291759576,0.0
0.027,-3.221975320633064e-5,-3.518473652519918e-10,0.7853594291759578,0.0
0.028,-3.5855494838088475e-5,-4.2107029438165876e-10,0.7853594291759578,0.0
0.029,-3.974678109219809e-5,-5.006786052647125e-10,0.7853594291759579,0.0
0.03,-4.3900938505370135e-5,-5.917736758316605e-10,0.7853594291759578,0.0
0.031,-4.8325128547244134e-5,-6.955269876344041e-10,0.7853594291759578,0.0
0.032,-5.3026344623674504e-5,-8.131814779920379e-10,0.7853594291759576,0.0
0.033,-5.801140912620184e-5,-9.460528009925151e-10,0.7853594291759576,0.0
0.034,-6.328697071866785e-5,-1.095530498905332e-9,0.7853594291759577,0.0
0.035,-6.885950175083977e-5,-1.2630790812472926e-9,0.7853594291759577,0.0
0.036,-7.47352957608527e-5,-1.450239012145099e-9,0.7853594291759578,0.0
0.037,-8.092046523833218e-5,-1.6586276055000982e-9,0.7853594291759577,0.0
0.038,-8.742093945324214e-5,-1.8899398270607205e-9,0.7853594291759578,0.0
0.039,-9.424246244860157e-5,-2.145949004215761e-9,0.7853594291759577,0.0
0.04,-0.00010139059127167727,-2.4285074423226563e-9,0.7853594291759578,0.0
0.041,-0.00010887069425180584,-2.739546947713061e-9,0.7853594291759576,0.0
0.042,-0.00011668794947228278,-3.0810792604385917e-9,0.7853594291759578,0.0
0.043,-0.00012484734343232162,-3.455196391830397e-9,0.7853594291759578,0.0
0.044,-0.00013335366984179586,-3.864070872788231e-9,0.7853594291759576,0.0
0.045,-0.0001422115285332204,-4.3099559100139885e-9,0.7853594291759577,0.0
0.046,-0.00015142532460288294,-4.7951854512129095e-9,0.7853594291759577,0.0
0.047,-0.00016099926762347394,-5.322174162589611e-9,0.7853594291759576,0.0
0.048,-0.00017093737110407403,-5.893417316104612e-9,0.7853594291759576,0.0
0.049,-0.00018124345202208403,-6.511490591173757e-9,0.7853594291759572,0.0
0.05,-0.00019192113052168835,-7.179049788560814e-9,0.7853594291759577,0.0
0.051,-0.00020297382984013623,-7.898830460325722e-9,0.7853594291759575,0.0
0.052,-0.00021440477630108035,-8.673647456790713e-9,0.7853594291759575,0.0
0.053,-0.0002262169994482477,-9.506394390497203e-9,0.7853594291759571,0.0
0.054,-0.00023841333241225726,-1.040004302197816e-8,0.7853594291759575,0.0
0.055,-0.0002509964123609265,-1.1357642565082665e-8,0.7853594291759572,0.0
0.056,-0.00026396868110367677,-1.238231891628435e-8,0.7853594291759577,0.0
0.057,-0.0002773323858473731,-1.3477273812134336e-8,0.7853594291759578,0.0
0.058,-0.0002910895801075952,-1.4645783909871348e-8,0.7853594291759571,0.0
0.059,-0.0003052421247198289,-1.589119980071642e-8,0.7853594291759576,0.0
0.06,-0.0003197916890487207,-1.721694495486286e-8,0.7853594291759575,0.0
0.061,-0.000334739752273272,-1.8626514600411214e-8,0.7853594291759577,0.0
0.062,-0.00035008760484256385,-2.0123474535951045e-8,0.7853594291759575,0.0
0.063,-0.00036583635006381954,-2.171145988932562e-8,0.7853594291759577,0.0
0.064,-0.0003819869057890557,-2.339417380994857e-8,0.7853594291759575,0.0
0.065,-0.00039854000628913866,-2.5175386111680933e-8,0.7853594291759578,0.0
0.066,-0.00041549620416425626,-2.7058931857649147e-8,0.7853594291759577,0.0
0.067,-0.00043285587247776647,-2.9048709900122895e-8,0.7853594291759578,0.0
0.068,-0.00045061920690336876,-3.114868136702307e-8,0.7853594291759576,0.0
0.069,-0.0004687862280987609,-3.336286810817876e-8,0.7853594291759575,0.0
0.07,-0.0004873567840890658,-3.569535109832454e-8,0.7853594291759575,0.0
0.071,-0.0005063305528540951,-3.8150268798112057e-8,0.7853594291759575,0.0
0.072,-0.0005257070449387058,-4.0731815487311807e-8,0.7853594291759575,0.0
0.073,-0.0005454856062367952,-4.3444239553996336e-8,0.7853594291759576,0.0
0.074,-0.000565665420837469,-4.6291841764289085e-8,0.7853594291759576,0.0
0.075,-0.0005862455139724609,-4.927897349665984e-8,0.7853594291759575,0.0
0.076,-0.0006072247550843457,-5.241003496017399e-8,0.7853594291759576,0.0
0.077,-0.0006286018609560351,-5.5689473384091734e-8,0.7853594291759572,0.0
0.078,-0.0006503753989446359,-5.912178119779079e-8,0.7853594291759576,0.0
0.079,-0.0006725437902908027,-6.271149418911348e-8,0.7853594291759574,0.0
0.08,-0.0006951053135151319,-6.646318965742833e-8,0.7853594291759575,0.0
0.081,-0.000718058107926911,-7.038148455275968e-8,0.7853594291759576,0.0
0.082,-0.0007414001771164358,-7.44710336139686e-8,0.7853594291759578,0.0
0.083,-0.0007651293926040914,-7.873652750476539e-8,0.7853594291759576,0.0
0.084,-0.0007892434975578233,-8.318269094833978e-8,0.7853594291759574,0.0
0.085,-0.0008137401104808539,-8.781428086502684e-8,0.7853594291759576,0.0
0.086,-0.0008386167290712621,-9.263608452176361e-8,0.7853594291759577,0.0
0.087,-0.000863870734076233,-9.76529176916559e-8,0.7853594291759578,0.0
0.088,-0.0008894993932160311,-1.028696228183427e-7,0.7853594291759577,0.0
0.089,-0.0009154998651226265,-1.0829106720670672e-7,0.7853594291759575,0.0
0.09,-0.000941869203409329,-1.1392214122713743e-7,0.7853594291759577,0.0
0.091,-0.0009686043606715877,-1.1976775654337548e-7,0.7853594291759577,0.0
0.092,-0.000995702192629011,-1.2583284436434514e-7,0.7853594291759578,0.0
0.093,-0.001023159462209211,-1.3212235372352544e-7,0.7853594291759576,0.0
0.094,-0.001050972843747111,-1.3864124978905847e-7,0.7853594291759576,0.0
0.095,-0.001079138927137624,-1.4539451220741371e-7,0.7853594291759574,0.0
0.096,-0.0011076542220500585,-1.5238713348158421e-7,0.7853594291759576,0.0
0.097,-0.0011365151621727243,-1.5962411738609144e-7,0.7853594291759576,0.0
0.098,-0.0011657181094344438,-1.6711047742568345e-7,0.7853594291759576,0.0
0.099,-0.0011952593582784665,-1.7485123533713016e-7,0.7853594291759577,0.0
0.1,-0.0012251351398968602,-1.8285141963053772e-7,0.7853594291759574,0.0
0.101,-0.001255341626550166,-1.9111606418698718e-7,0.7853594291759576,0.0
0.102,-0.0012858749357818056,-1.9965020690116764e-7,0.7853594291759572,0.0
0.103,-0.0013167311346817812,-2.0845888837068421e-7,0.7853594291759576,0.0
0.104,-0.0013479062442267598,-2.1754715065795335e-7,0.7853594291759577,0.0
0.105,-0.0013793962434602847,-2.2692003607909482e-7,0.7853594291759577,0.0
0.106,-0.001411197073706294,-2.3658258608248717e-7,0.7853594291759575,0.0
0.107,-0.0014433046428954377,-2.4653984016125875e-7,0.7853594291759577,0.0
0.108,-0.0014757148296817846,-2.567968348412392e-7,0.7853594291759575,0.0
0.109,-0.0015084234876452385,-2.6735860272886734e-7,0.7853594291759575,0.0
0.11,-0.0015414264494437724,-2.7823017162198265e-7,0.7853594291759577,0.0
0.111,-0.0015747195309887552,-2.894165636854523e-7,0.7853594291759575,0.0
0.112,-0.001608298535464403,-3.0092279469900573e-7,0.7853594291759575,0.0
0.113,-0.0016421592574196175,-3.127538733696338e-7,0.7853594291759575,0.0
0.114,-0.0016762974867887692,-3.2491480071191294e-7,0.7853594291759576,0.0
0.115,-0.0017107090128929414,-3.3741056950601245e-7,0.7853594291759575,0.0
0.116,-0.0017453896283292636,-3.502461638153873e-7,0.7853594291759574,0.0
0.117,-0.0017803351328904427,-3.6342655859180305e-7,0.7853594291759574,0.0
0.118,-0.0018155413373963647,-3.7695671934237767e-7,0.7853594291759575,0.0
0.119,-0.0018510040674688533,-3.9084160186980644e-7,0.7853594291759575,0.0
0.12,-0.0018867191672993222,-4.050861520954745e-7,0.7853594291759577,0.0
0.121,-0.0019226825032565564,-4.196953059504402e-7,0.7853594291759576,0.0
0.122,-0.001958889967585087,-4.346739893410661e-7,0.7853594291759576,0.0
0.123,-0.0019953374818850733,-4.500271181965068e-7,0.7853594291759575,0.0
0.124,-0.0020320210006450345,-4.6575959858211665e-7,0.7853594291759574,0.0
0.125,-0.002068936514627584,-4.818763268934134e-7,0.7853594291759574,0.0
0.126,-0.002106080054259607,-4.983821901264783e-7,0.7853594291759574,0.0
0.127,-0.002143447692879885,-5.152820662164981e-7,0.7853594291759576,0.0
0.128,-0.0021810355499707335,-5.325808244624475e-7,0.7853594291759577,0.0
0.129,-0.002218839794281724,-5.502833260149793e-7,0.7853594291759578,0.0
0.13,-0.0022568566468748053,-5.683944244423787e-7,0.7853594291759575,0.0
0.131,-0.0022950823841205725,-5.869189663699169e-7,0.7853594291759575,0.0
0.132,-0.002333513340602611,-6.058617921911964e-7,0.7853594291759576,0.0
0.133,-0.0023721459119050436,-6.252277368524626e-7,0.7853594291759577,0.0
0.134,-0.002410976557367661,-6.450216307086901e-7,0.7853594291759575,0.0
0.135,-0.002450001802757562,-6.65248300439408e-7,0.7853594291759578,0.0
0.136,-0.002489218242768043,-6.859125700509365e-7,0.7853594291759572,0.0
0.137,-0.0025286225435752208,-7.070192619313157e-7,0.7853594291759576,0.0
0.138,-0.00256821144515218,-7.285731979809118e-7,0.7853594291759575,0.0
0.139,-0.0026079817636479596,-7.505792007997262e-7,0.7853594291759577,0.0
0.14,-0.0026479303935191822,-7.730420949459381e-7,0.7853594291759574,0.0
0.141,-0.002688054309708754,-7.959667082518005e-7,0.7853594291759574,0.0
0.142,-0.00272835056965004,-8.193578732110934e-7,0.7853594291759572,0.0
0.143,-0.002768816315196432,-8.432204284050671e-7,0.7853594291759577,0.0
0.144,-0.002809448774483858,-8.675592200007003e-7,0.7853594291759576,0.0
0.145,-0.0028502452636924858,-8.923791033105428e-7,0.7853594291759578,0.0
0.146,-0.002891203188632563,-9.176849443884435e-7,0.7853594291759578,0.0
0.147,-0.002932320046408865,-9.434816216861031e-7,0.7853594291759577,0.0
0.148,-0.0029735934267960396,-9.697740277702337e-7,0.7853594291759577,0.0
0.149,-0.003015021013683672,-9.965670710631366e-7,0.7853594291759576,0.0
0.15,-0.003056600586322844,-1.0238656776486582e-6,0.7853594291759577,0.0
0.151,-0.0030983300205016384,-1.0516747931321388e-6,0.7853594291759575,0.0
0.152,-0.0031402072896558053,-1.0799993844919044e-6,0.7853594291759574,0.0
0.153,-0.003182230465861746,-1.108844442046118e-6,0.7853594291759574,0.0
0.154,-0.0032243977207175867,-1.1382149813814668e-6,0.7853594291759572,0.0
0.155,-0.003266707326202045,-1.1681160453721638e-6,0.7853594291759576,0.0
0.156,-0.003309157655318362,-1.1985527061963465e-6,0.7853594291759576,0.0
0.157,-0.003351747182781306,-1.2295300674043013e-6,0.7853594291759576,0.0
0.158,-0.003394474485511001,-1.2610532660072872e-6,0.7853594291759575,0.0
0.159,-0.003437338243067689,-1.2931274745825146e-6,0.7853594291759574,0.0
0.16,-0.0034803372380483033,-1.3257579034158537e-6,0.7853594291759576,0.0
0.161,-0.0035234703562707637,-1.3589498026576625e-6,0.7853594291759578,0.0
0.162,-0.003566736587005348,-1.3927084644903233e-6,0.7853594291759577,0.0
0.163,-0.0036101350230128837,-1.4270392253323176e-6,0.7853594291759576,0.0
0.164,-0.0036536648605545174,-1.4619474680197496e-6,0.7853594291759577,0.0
0.165,-0.00369732539929446,-1.4974386240439218e-6,0.7853594291759576,0.0
0.166,-0.0037411160421347844,-1.533518175743701e-6,0.7853594291759577,0.0
0.167,-0.0037850362948947947,-1.5701916585543702e-6,0.7853594291759577,0.0
0.168,-0.0038290857660667754,-1.6074646632183165e-6,0.7853594291759576,0.0
0.169,-0.003873264166258217,-1.6453428380345343e-6,0.7853594291759575,0.0
0.17,-0.003917571307802792,-1.6838318910564112e-6,0.7853594291759575,0.0
0.171,-0.003962007104091114,-1.722937592335376e-6,0.7853594291759575,0.0
0.172,-0.00400657156894102,-1.7626657761165166e-6,0.7853594291759574,0.0
0.173,-0.004051264815839506,-1.8030223430648808e-6,0.7853594291759577,0.0
0.174,-0.004096087057128273,-1.8440132624313868e-6,0.7853594291759577,0.0
0.175,-0.004141038603137304,-1.8856445742419358e-6,0.7853594291759572,0.0
0.176,-0.004186119861171456,-1.927922391451505e-6,0.7853594291759575,0.0
0.177,-0.004231331334546784,-1.9708529020862064e-6,0.7853594291759575,0.0
0.178,-0.0042766736214265855,-2.014442371360732e-6,0.7853594291759574,0.0
0.179,-0.004322147413692079,-2.0586971437612164e-6,0.7853594291759577,0.0
0.18,-0.0043677534957007325,-2.1036236451210492e-6,0.7853594291759574,0.0
0.181,-0.004413492743002845,-2.1492283846485504e-6,0.7853594291759577,0.0
0.182,-0.00445936612096931,-2.195517956942502e-6,0.7853594291759577,0.0
0.183,-0.004505374683394958,-2.242499043948699e-6,0.7853594291759578,0.0
0.184,-0.004551519571017515,-2.2901784169136827e-6,0.7853594291759577,0.0
0.185,-0.004597802009986829,-2.338562938262361e-6,0.7853594291759575,0.0
0.186,-0.004644223310311002,-2.3876595634793156e-6,0.7853594291759576,0.0
0.187,-0.004690784864197717,-2.437475342897521e-6,0.7853594291759577,0.0
0.188,-0.004737488144374247,-2.488017423502454e-6,0.7853594291759577,0.0
0.189,-0.004784334702388371,-2.539293050637546e-6,0.7853594291759576,0.0
0.19,-0.004831326166796934,-2.5913095696872973e-6,0.7853594291759577,0.0
0.191,-0.004878464241372171,-2.6440744277094353e-6,0.7853594291759575,0.0
0.192,-0.004925750703255183,-2.69759517502674e-6,0.7853594291759577,0.0
0.193,-0.004973187401019263,-2.7518794667362543e-6,0.7853594291759575,0.0
0.194,-0.005020776252770531,-2.8069350641885676e-6,0.7853594291759577,0.0
0.195,-0.005068519244165071,-2.862769836417447e-6,0.7853594291759575,0.0
0.196,-0.005116418426402092,-2.919391761475789e-6,0.7853594291759576,0.0
0.197,-0.005164475914193556,-2.9768089277748284e-6,0.7853594291759574,0.0
0.198,-0.0052126938837124825,-3.035029535281746e-6,0.7853594291759574,0.0
0.199,-0.005261074570484858,-3.0940618967359272e-6,0.7853594291759577,0.0
0.2,-0.005309620267255788,-3.153914438752247e-6,0.7853594291759575,0.0
0.201,-0.0053583333219417995,-3.2145957028978985e-6,0.7853594291759578,0.0
0.202,-0.0054072161353500015,-3.2761143466529963e-6,0.7853594291759572,0.0
0.203,-0.005456271159069104,-3.3384791443555675e-6,0.7853594291759576,0.0
0.204,-0.0055055008932751726,-3.4016989880699972e-6,0.7853594291759578,0.0
0.205,-0.005554907884526283,-3.4657828883672206e-6,0.7853594291759572,0.0
0.206,-0.005604494723493669,-3.5307399750619806e-6,0.7853594291759575,0.0
0.207,-0.0056542640427892366,-3.5965794978535907e-6,0.7853594291759576,0.0
0.208,-0.0057042185146802815,-3.663310826953906e-6,0.7853594291759574,0.0
0.209,-0.005754360848873485,-3.7309434535604674e-6,0.7853594291759578,0.0
0.21,-0.005804693790239401,-3.7994869903482976e-6,0.7853594291759575,0.0
0.211,-0.005855220116564475,-3.868951171825084e-6,0.7853594291759574,0.0
0.212,-0.005905942636312833,-3.939345854646684e-6,0.7853594291759575,0.0
0.213,-0.0059568641863267935,-4.010681017880798e-6,0.7853594291759572,0.0
0.214,-0.0060079876296139645,-4.082966763147705e-6,0.7853594291759576,0.0
0.215,-0.00605931585308328,-4.156213314737136e-6,0.7853594291759576,0.0
0.216,-0.006110851765286807,-4.2304310196277905e-6,0.7853594291759575,0.0
0.217,-0.006162598294235266,-4.30563034745958e-6,0.7853594291759577,0.0
0.218,-0.006214558385096325,-4.381821890412632e-6,0.7853594291759575,0.0
0.219,-0.0062667349980474185,-4.459016363032517e-6,0.7853594291759576,0.0
0.22,-0.006319131106047315,-4.537224601974159e-6,0.7853594291759576,0.0
0.221,-0.006371749692638762,-4.616457565688285e-6,0.7853594291759577,0.0
0.222,-0.006424593749802643,-4.696726334028076e-6,0.7853594291759574,0.0
0.223,-0.00647766627579216,-4.7780421078085465e-6,0.7853594291759574,0.0
0.224,-0.006530970273010084,-4.8604162082596745e-6,0.7853594291759576,0.0
0.225,-0.006584508745870021,-4.9438600764474365e-6,0.7853594291759572,0.0
0.226,-0.006638284698735841,-5.028385272626756e-6,0.7853594291759576,0.0
0.227,-0.0066923011338415606,-5.114003475519642e-6,0.7853594291759575,0.0
0.228,-0.0067465610492511985,-5.200726481507023e-6,0.7853594291759577,0.0
0.229,-0.006801067436838615,-5.288566203799335e-6,0.7853594291759576,0.0
0.23,-0.0068558232803099806,-5.377534671536415e-6,0.7853594291759576,0.0
0.231,-0.006910831553233798,-5.4676440287856985e-6,0.7853594291759574,0.0
0.232,-0.00696609521713043,-5.558906533539333e-6,0.7853594291759575,0.0
0.233,-0.007021617219530096,-5.651334556595932e-6,0.7853594291759576,0.0
0.234,-0.00707740049215877,-5.7449405804221605e-6,0.7853594291759571,0.0
0.235,-0.007133447949078331,-5.839737197970091e-6,0.7853594291759576,0.0
0.236,-0.0071897624849004416,-5.935737111375074e-6,0.7853594291759574,0.0
0.237,-0.0072463469729942,-6.032953130665321e-6,0.7853594291759575,0.0
0.238,-0.007303204263790608,-6.131398172407954e-6,0.7853594291759576,0.0
0.239,-0.007360337183092813,-6.231085258252486e-6,0.7853594291759578,0.0
0.24,-0.007417748530393453,-6.33202751349881e-6,0.7853594291759576,0.0
0.241,-0.007475441077305689,-6.4342381655617484e-6,0.7853594291759575,0.0
0.242,-0.0075334175659258484,-6.537730542424333e-6,0.7853594291759575,0.0
0.243,-0.007591680707384807,-6.6425180710210415e-6,0.7853594291759577,0.0
0.244,-0.007650233180275912,-6.748614275592629e-6,0.7853594291759577,0.0
0.245,-0.007709077629249883,-6.856032775994772e-6,0.7853594291759576,0.0
0.246,-0.0077682166635764105,-6.9647872859637805e-6,0.7853594291759577,0.0
0.247,-0.00782765285582343,-7.074891611378621e-6,0.7853594291759577,0.0
0.248,-0.007887388740478674,-7.186359648398907e-6,0.7853594291759576,0.0
0.249,-0.007947426812705771,-7.299205381681821e-6,0.7853594291759579,0.0
0.25,-0.00800776952708393,-7.413442882501457e-6,0.7853594291759576,0.0
0.251,-0.008068419296455076,-7.529086306812e-6,0.7853594291759572,0.0
0.252,-0.008129378490722594,-7.64614989335775e-6,0.7853594291759575,0.0
0.253,-0.008190649435787734,-7.764647961706807e-6,0.7853594291759576,0.0
0.254,-0.008252234412498893,-7.88459491026395e-6,0.7853594291759576,0.0
0.255,-0.008314135655605792,-8.006005214254448e-6,0.7853594291759579,0.0
0.256,-0.008376355352810005,-8.12889342374128e-6,0.7853594291759577,0.0
0.257,-0.008438895643851474,-8.253274161519608e-6,0.7853594291759575,0.0
0.258,-0.008501758619638089,-8.379162121110572e-6,0.7853594291759574,0.0
0.259,-0.008564946321399702,-8.50657206464189e-6,0.7853594291759577,0.0
0.26,-0.008628460739900312,-8.635518820781368e-6,0.7853594291759576,0.0
0.261,-0.008692303814725744,-8.766017282631385e-6,0.7853594291759575,0.0
0.262,-0.008756477433579324,-8.898082405595174e-6,0.7853594291759576,0.0
0.263,-0.008820983431634843,-9.031729205295595e-6,0.7853594291759575,0.0
0.264,-0.008885823590918829,-9.166972755410199e-6,0.7853594291759576,0.0
0.265,-0.008950999639789181,-9.303828185553992e-6,0.7853594291759574,0.0
0.266,-0.009016513252395608,-9.442310679165684e-6,0.7853594291759572,0.0
0.267,-0.009082366048233759,-9.582435471347517e-6,0.7853594291759572,0.0
0.268,-0.0091485595917149,-9.724217846766685e-6,0.7853594291759578,0.0
0.269,-0.00921509539177201,-9.867673137476957e-6,0.7853594291759574,0.0
