Time,Y-Force,Work Integrand,Mass,Mass error
0.0,3.552713678800501e-15,-9.926167350636332e-23,0.7847868925780568,0.0
0.001,-8.938068063457649e-10,-1.416890244387392e-17,0.7847868925780569,0.0
0.002,-7.1480341645724366e-9,-4.532285630020385e-16,0.7847868925780569,0.0
0.003,-2.4116094898829488e-8,-3.4403233651886104e-15,0.7847868925780568,0.0
0.004,-5.71429623619224e-8,-1.449144835502362e-14,0.7847868925780568,0.0
0.005,-1.1156429646774768e-7,-4.4205247889432466e-14,0.7847868925780567,0.0
0.006,-1.927056469952504e-7,-1.0994743332255947e-13,0.7847868925780568,0.0
0.007,-3.058815498668821e-7,-2.3752928241993943e-13,0.7847868925780568,0.0
0.008,-4.563946998104029e-7,-4.628796394623951e-13,0.7847868925780568,0.0
0.009,-6.495351700941399e-7,-8.337099135108947e-13,0.7847868925780569,0.0
0.01,-8.905794737223971e-7,-1.4111715031380704e-12,0.7847868925780568,0.0
0.011,-1.1847898164774051e-6,-2.2715050275982787e-12,0.7847868925780567,0.0
0.012,-1.53741324293577e-6,-3.5076810493399487e-12,0.7847868925780569,0.0
0.013,-1.953680827782023e-6,-5.231031521507157e-12,0.7847868925780569,0.0
0.014,-2.43880684891451e-6,-7.57287155787802e-12,0.7847868925780568,0.0
0.015,-2.9979879783148533e-6,-1.0686110936763775e-11,0.784786892578057,0.0
0.016,-3.636402499118674e-6,-1.4746855006831608e-11,0.7847868925780569,0.0
0.017,-4.3592094862709985e-6,-1.9955994168147106e-11,0.7847868925780568,0.0
0.018,-5.17154804224873e-6,-2.6540781809851694e-11,0.7847868925780568,0.0
0.019,-6.0785364732751646e-6,-3.4756399621966964e-11,0.7847868925780568,0.0
0.02,-7.0852715512437214e-6,-4.488751096657555e-11,0.7847868925780569,0.0
0.021,-8.196827711692833e-6,-5.7249799864688474e-11,0.7847868925780569,0.0
0.022,-9.418256321502838e-6,-7.219149743940161e-11,0.7847868925780568,0.0
0.023,-1.07545848795354e-5,-9.009489361220852e-11,0.7847868925780568,0.0
0.024,-1.2210816288771298e-5,-1.1137783382207667e-10,0.7847868925780568,0.0
0.025,-1.379192812578367e-5,-1.3649520197515615e-10,0.7847868925780568,0.0
0.026,-1.5502871879125024e-5,-1.659403860862171e-10,0.7847868925780568,0.0
0.027,-1.7348572229458625e-5,-2.0024672944937618e-10,0.7847868925780567,0.0
0.028,-1.933392632835762e-5,-2.39988964448036e-10,0.7847868925780567,0.0
0.029,-2.14638030877623e-5,-2.8578463043044035e-10,0.7847868925780569,0.0
0.03,-2.3743042476098708e-5,-3.382954730013271e-10,0.7847868925780569,0.0
0.031,-2.6176454802850913e-5,-3.982288275655439e-10,0.7847868925780567,0.0
0.032,-2.8768820063529432e-5,-4.663389823328097e-10,0.7847868925780568,0.0
0.033,-3.152488722246716e-5,-5.434285254524661e-10,0.7847868925780569,0.0
0.034,-3.4449373541800554e-5,-6.303496717211833e-10,0.7847868925780568,0.0
0.035,-3.7546963963297486e-5,-7.280055702900217e-10,0.7847868925780569,0.0
0.036,-4.0822310408916707e-5,-8.373515926864486e-10,0.7847868925780569,0.0
0.037,-4.4280031120891294e-5,-9.59396602404918e-10,0.7847868925780569,0.0
0.038,-4.792471008929766e-5,-1.095204201309076e-9,0.7847868925780568,0.0
0.039,-5.176089636771408e-5,-1.2458939583817998e-9,0.7847868925780569,0.0
0.04,-5.5793103463486204e-5,-1.412642615574854e-9,0.7847868925780569,0.0
0.041,-6.0025808741315245e-5,-1.596685272957062e-9,0.7847868925780569,0.0
0.042,-6.446345280997079e-5,-1.799316552347839e-9,0.7847868925780571,0.0
0.043,-6.911043895652114e-5,-2.0218917399036527e-9,0.7847868925780568,0.0
0.044,-7.397113253793108e-5,-2.265827903313823e-9,0.7847868925780568,0.0
0.045,-7.904986039664053e-5,-2.5326049908494866e-9,0.7847868925780568,0.0
0.046,-8.435091035430275e-5,-2.8237669053539425e-9,0.7847868925780569,0.0
0.047,-8.987853060293816e-5,-3.1409225542179155e-9,0.784786892578057,0.0
0.048,-9.563692921066291e-5,-3.4857468783687333e-9,0.784786892578057,0.0
0.049,-0.00010163027354082033,-3.85998185571299e-9,0.7847868925780568,0.0
0.05,-0.00010786268975682134,-4.2654374827664175e-9,0.7847868925780567,0.0
0.051,-0.000114338262346525,-4.703992729653038e-9,0.7847868925780569,0.0
0.052,-0.00012106103353781705,-5.177596474064024e-9,0.7847868925780569,0.0
0.053,-0.0001280350028762811,-5.688268408328336e-9,0.7847868925780569,0.0
0.054,-0.00013526412673225963,-6.238099922793554e-9,0.7847868925780568,0.0
0.055,-0.00014275231780969122,-6.829254963199396e-9,0.7847868925780569,0.0
0.056,-0.00015050344470424193,-7.463970866367206e-9,0.7847868925780568,0.0
0.057,-0.00015852133145921599,-8.144559166670183e-9,0.7847868925780568,0.0
0.058,-0.00016680975712368706,-8.873406379464321e-9,0.7847868925780568,0.0
0.059,-0.00017537245529641865,-9.652974758335865e-9,0.7847868925780568,0.0
0.06,-0.00018421311377503358,-1.048580302746632e-8,0.7847868925780568,0.0
0.061,-0.00019333537409060852,-1.1374507087556491e-8,0.7847868925780569,0.0
0.062,-0.00020274283113685954,-1.2321780696027823e-8,0.7847868925780568,0.0
0.063,-0.0002124390327882253,-1.3330396120742093e-8,0.7847868925780569,0.0
0.064,-0.00022242747954859254,-1.4403204769163937e-8,0.7847868925780569,0.0
0.065,-0.00023271162413429636,-1.5543137789849107e-8,0.7847868925780568,0.0
0.066,-0.0002432948711987848,-1.67532066490774e-8,0.7847868925780568,0.0
0.067,-0.00025418057691428686,-1.8036503679458955e-8,0.7847868925780568,0.0
0.068,-0.00026537204870757947,-1.9396202603061798e-8,0.784786892578057,0.0
0.069,-0.0002768725449264764,-2.0835559028952225e-8,0.7847868925780567,0.0
0.07,-0.0002886852745271895,-2.2357910924605904e-8,0.7847868925780568,0.0
0.071,-0.0003008133967754567,-2.39666790563379e-8,0.7847868925780569,0.0
0.072,-0.00031326002097831207,-2.566536741043391e-8,0.7847868925780569,0.0
0.073,-0.00032602820621852047,-2.745756358266344e-8,0.7847868925780567,0.0
0.074,-0.0003391209610734691,-2.9346939141338454e-8,0.7847868925780567,0.0
0.075,-0.0003525412433686981,-3.1337249968403386e-8,0.7847868925780569,0.0
0.076,-0.0003662919599851655,-3.343233656886643e-8,0.7847868925780569,0.0
0.077,-0.00038037596656081973,-3.5636124355890517e-8,0.7847868925780568,0.0
0.078,-0.0003947960673453821,-3.795262391143549e-8,0.7847868925780567,0.0
0.079,-0.00040955501495432145,-4.038593121548557e-8,0.7847868925780568,0.0
0.08,-0.0004246555101916627,-4.294022785570695e-8,0.7847868925780566,0.0
0.081,-0.0004401002018754596,-4.561978120579905e-8,0.7847868925780567,0.0
0.082,-0.0004558916866619356,-4.842894458029147e-8,0.7847868925780567,0.0
0.083,-0.0004720325088789501,-5.137215736009462e-8,0.7847868925780568,0.0
0.084,-0.0004885251604083152,-5.4453945098534686e-8,0.7847868925780568,0.0
0.085,-0.0005053720805143769,-5.7678919592992275e-8,0.7847868925780568,0.0
0.086,-0.0005225756557605266,-6.105177894063043e-8,0.7847868925780568,0.0
0.087,-0.000540138219865316,-6.457730755755789e-8,0.7847868925780568,0.0
0.088,-0.0005580620536091985,-6.826037618576797e-8,0.7847868925780567,0.0
0.089,-0.0005763493847577017,-7.210594185760389e-8,0.7847868925780568,0.0
0.09,-0.0005950023879748301,-7.611904785577873e-8,0.7847868925780567,0.0
0.091,-0.0006140231847422406,-8.030482362861801e-8,0.7847868925780567,0.0
0.092,-0.0006334138433330416,-8.466848469586958e-8,0.7847868925780568,0.0
0.093,-0.0006531763787425149,-8.921533251895174e-8,0.7847868925780568,0.0
0.094,-0.0006733127526694638,-9.39507543565104e-8,0.7847868925780568,0.0
0.095,-0.0006938248734664754,-9.888022308449573e-8,0.7847868925780567,0.0
0.096,-0.0007147145961705625,-1.0400929700265919e-7,0.7847868925780568,0.0
0.097,-0.000735983722472966,-1.0934361961353889e-7,0.7847868925780568,0.0
0.098,-0.0007576340007311444,-1.1488891937409601e-7,0.7847868925780567,0.0
0.099,-0.0007796671259976407,-1.2065100943081707e-7,0.7847868925780567,0.0
0.1,-0.0008020847400480591,-1.2663578732407914e-7,0.7847868925780568,0.0
0.101,-0.0008248884314263627,-1.328492346787456e-7,0.7847868925780567,0.0
0.102,-0.0008480797355003844,-1.3929741686372673e-7,0.7847868925780567,0.0
0.103,-0.0008716601345155617,-1.4598648263381342e-7,0.7847868925780567,0.0
0.104,-0.0008956310576686555,-1.5292266374738756e-7,0.7847868925780568,0.0
0.105,-0.0009199938812187725,-1.601122745660804e-7,0.7847868925780568,0.0
0.106,-0.0009447499285410998,-1.6756171162732574e-7,0.7847868925780569,0.0
0.107,-0.0009699004702836689,-1.7527745319913246e-7,0.7847868925780568,0.0
0.108,-0.0009954467244139842,-1.8326605881458218e-7,0.7847868925780568,0.0
0.109,-0.0010213898564277457,-1.91534168782041e-7,0.7847868925780567,0.0
0.11,-0.001047730979419459,-2.0008850368333653e-7,0.7847868925780567,0.0
0.111,-0.0010744711542649554,-2.0893586383718618e-7,0.7847868925780566,0.0
0.112,-0.001101611389760837,-2.1808312876034873e-7,0.7847868925780568,0.0
0.113,-0.0011291526427981147,-2.2753725659597872e-7,0.7847868925780567,0.0
0.114,-0.0011570958185389557,-2.3730528352918726e-7,0.7847868925780568,0.0
0.115,-0.0011854417706063103,-2.473943231861772e-7,0.7847868925780568,0.0
0.116,-0.0012141913012553296,-2.5781156600421327e-7,0.7847868925780567,0.0
0.117,-0.0012433451616349345,-2.685642786021342e-7,0.7847868925780568,0.0
0.118,-0.0012729040519356971,-2.7965980310890644e-7,0.7847868925780566,0.0
0.119,-0.001302868621663844,-2.911055565029113e-7,0.7847868925780568,0.0
0.12,-0.0013332394698499783,-3.0290902990862296e-7,0.7847868925780567,0.0
0.121,-0.0013640171452946603,-3.150777878931782e-7,0.784786892578057,0.0
0.122,-0.001395202146830865,-3.276194677413161e-7,0.7847868925780567,0.0
0.123,-0.0014267949235962085,-3.4054177871324165e-7,0.7847868925780568,0.0
0.124,-0.0014587958752660946,-3.538525012900754e-7,0.7847868925780568,0.0
0.125,-0.0014912053523570279,-3.6755948640732235e-7,0.7847868925780568,0.0
0.126,-0.0015240236565214893,-3.816706546607481e-7,0.7847868925780568,0.0
0.127,-0.0015572510408343732,-3.961939955162124e-7,0.7847868925780568,0.0
0.128,-0.0015908877100914154,-4.111375664936443e-7,0.7847868925780568,0.0
0.129,-0.0016249338211364872,-4.2650949233567596e-7,0.7847868925780568,0.0
0.13,-0.0016593894831808953,-4.423179641769269e-7,0.7847868925780567,0.0
0.131,-0.0016942547581191292,-4.585712386871591e-7,0.7847868925780568,0.0
0.132,-0.0017295296608952349,-4.7527763720928195e-7,0.7847868925780568,0.0
0.133,-0.0017652141598243354,-4.924455448881418e-7,0.7847868925780569,0.0
0.134,-0.0018013081769581163,-5.100834097694954e-7,0.7847868925780568,0.0
0.135,-0.0018378115884445378,-5.281997419267397e-7,0.7847868925780568,0.0
0.136,-0.0018747242249022023,-5.468031125280097e-7,0.7847868925780568,0.0
0.137,-0.0019120458717791777,-5.659021529349356e-7,0.7847868925780568,0.0
0.138,-0.001949776269768222,-5.85505553775921e-7,0.7847868925780568,0.0
0.139,-0.00198791511518559,-6.056220639952974e-7,0.7847868925780568,0.0
0.14,-0.002026462060350287,-6.262604899275786e-7,0.7847868925780567,0.0
0.141,-0.002065416714039703,-6.474296943323032e-7,0.7847868925780569,0.0
0.142,-0.0021047786418351144,-6.691385954376607e-7,0.7847868925780568,0.0
0.143,-0.0021445473666004133,-6.913961659730031e-7,0.7847868925780568,0.0
0.144,-0.0021847223688871154,-7.142114321911659e-7,0.7847868925780568,0.0
0.145,-0.0022253030873686797,-7.375934728938785e-7,0.7847868925780568,0.0
0.146,-0.0022662889192659463,-7.61551418439069e-7,0.7847868925780567,0.0
0.147,-0.0023076792208405195,-7.860944497515296e-7,0.7847868925780567,0.0
0.148,-0.0023494733077789043,-8.112317973255588e-7,0.784786892578057,0.0
0.149,-0.002391670455713868,-8.369727402194726e-7,0.7847868925780566,0.0
0.15,-0.0024342699006667523,-8.633266050553194e-7,0.784786892578057,0.0
0.151,-0.0024772708394782406,-8.903027650039586e-7,0.7847868925780567,0.0
0.152,-0.0025206724303785677,-9.179106387809804e-7,0.7847868925780566,0.0
0.153,-0.002564473793357447,-9.461596896153052e-7,0.7847868925780568,0.0
0.154,-0.0026086740107382766,-9.750594242483555e-7,0.7847868925780569,0.0
0.155,-0.002653272127624895,-1.0046193919075342e-6,0.7847868925780567,0.0
0.156,-0.0026982671524322654,-1.034849183276774e-6,0.7847868925780567,0.0
0.157,-0.0027436580573425573,-1.065758429485194e-6,0.7847868925780568,0.0
0.158,-0.0027894437788655857,-1.0973568010906598e-6,0.7847868925780569,0.0
0.159,-0.0028356232183104346,-1.1296540070341796e-6,0.7847868925780568,0.0
0.16,-0.0028821952423312425,-1.1626597936317037e-6,0.7847868925780569,0.0
0.161,-0.0029291586834259142,-1.196383943564516e-6,0.7847868925780568,0.0
0.162,-0.0029765123404885685,-1.2308362748378581e-6,0.7847868925780569,0.0
0.163,-0.0030242549793024764,-1.2660266397713192e-6,0.7847868925780569,0.0
0.164,-0.0030723853331200424,-1.301964923978386e-6,0.7847868925780567,0.0
0.165,-0.0031209021031548545,-1.3386610453684344e-6,0.7847868925780567,0.0
0.166,-0.0031698039591621097,-1.3761249531164116e-6,0.7847868925780566,0.0
0.167,-0.0032190895399817343,-1.4143666266606004e-6,0.7847868925780569,0.0
0.168,-0.0032687574540322117,-1.4533960747017917e-6,0.7847868925780568,0.0
0.169,-0.003318806279957176,-1.4932233342156848e-6,0.7847868925780569,0.0
0.17,-0.00336923456709437,-1.5338584694359059e-6,0.7847868925780567,0.0
0.171,-0.00342004083608094,-1.575311570878226e-6,0.7847868925780568,0.0
0.172,-0.0034712235794285284,-1.6175927543592497e-6,0.7847868925780568,0.0
0.173,-0.003522781262035757,-1.660712160001551e-6,0.7847868925780567,0.0
0.174,-0.0035747123218112797,-1.7046799512972482e-6,0.7847868925780569,0.0
0.175,-0.0036270151702075815,-1.7495063141033818e-6,0.7847868925780568,0.0
0.176,-0.003679688192799624,-1.7952014557101516e-6,0.7847868925780568,0.0
0.177,-0.003732729749884367,-1.8417756038804217e-6,0.7847868925780567,0.0
0.178,-0.003786138177033216,-1.8892390059169813e-6,0.7847868925780568,0.0
0.179,-0.003839911785671557,-1.937601927718964e-6,0.7847868925780567,0.0
0.18,-0.003894048863688493,-1.9868746528720928e-6,0.7847868925780567,0.0
0.181,-0.0039485476759817395,-2.0370674817167013e-6,0.7847868925780569,0.0
0.182,-0.004003406465068693,-2.0881907304553258e-6,0.7847868925780568,0.0
0.183,-0.004058623451645982,-2.1402547302369884e-6,0.7847868925780568,0.0
0.184,-0.0041141968352365055,-2.1932698263045806e-6,0.7847868925780567,0.0
0.185,-0.004170124794697028,-2.24724637710701e-6,0.7847868925780568,0.0
0.186,-0.004226405488881202,-2.302194753407336e-6,0.7847868925780568,0.0
0.187,-0.004283037057163153,-2.3581253374707015e-6,0.7847868925780568,0.0
0.188,-0.004340017620098724,-2.415048522209874e-6,0.7847868925780568,0.0
0.189,-0.004397345279962828,-2.47297471034347e-6,0.7847868925780568,0.0
0.19,-0.004455018121383603,-2.5319143136065493e-6,0.7847868925780568,0.0
0.191,-0.0045130342118877564,-2.5918777519158857e-6,0.7847868925780568,0.0
0.192,-0.004571391602557817,-2.65287545260875e-6,0.7847868925780568,0.0
0.193,-0.0046300883285637084,-2.714917849651116e-6,0.7847868925780568,0.0
0.194,-0.004689122409794688,-2.7780153828737327e-6,0.7847868925780568,0.0
0.195,-0.004748491851437997,-2.8421784972377942e-6,0.7847868925780567,0.0
0.196,-0.004808194644596142,-2.9074176420779488e-6,0.7847868925780568,0.0
0.197,-0.0048682287668455615,-2.9737432704098196e-6,0.7847868925780567,0.0
0.198,-0.004928592182845026,-3.0411658381997945e-6,0.7847868925780568,0.0
0.199,-0.004989282844933829,-3.109695803695965e-6,0.7847868925780569,0.0
0.2,-0.005050298693726418,-3.179343626738898e-6,0.7847868925780567,0.0
0.201,-0.005111637658682167,-3.2501197681114417e-6,0.7847868925780568,0.0
0.202,-0.005173297658727982,-3.3220346888995864e-6,0.7847868925780569,0.0
0.203,-0.005235276602801431,-3.395098849861243e-6,0.7847868925780568,0.0
0.204,-0.005297572390492,-3.4693227108208245e-6,0.7847868925780568,0.0
0.205,-0.005360182912580225,-3.5447167300698985e-6,0.7847868925780568,0.0
0.206,-0.005423106051644311,-3.621291363802969e-6,0.7847868925780566,0.0
0.207,-0.005486339682655661,-3.6990570655591123e-6,0.7847868925780568,0.0
0.208,-0.005549881673537094,-3.7780242856738037e-6,0.7847868925780568,0.0
0.209,-0.005613729885745045,-3.858203470759368e-6,0.7847868925780568,0.0
0.21,-0.005677882174859317,-3.939605063214054e-6,0.7847868925780568,0.0
0.211,-0.005742336391154179,-4.0222395007063864e-6,0.7847868925780567,0.0
0.212,-0.005807090380174351,-4.106117215743003e-6,0.7847868925780567,0.0
0.213,-0.00587214198329189,-4.191248635201147e-6,0.7847868925780567,0.0
0.214,-0.005937489038290167,-4.277644179892168e-6,0.7847868925780567,0.0
0.215,-0.006003129379928751,-4.365314264168389e-6,0.7847868925780569,0.0
0.216,-0.006069060840492746,-4.454269295521953e-6,0.7847868925780566,0.0
0.217,-0.006135281250386537,-4.544519674210554e-6,0.7847868925780568,0.0
0.218,-0.0062017884386493805,-4.6360757929055085e-6,0.7847868925780567,0.0
0.219,-0.006268580233537158,-4.728948036368443e-6,0.7847868925780567,0.0
0.22,-0.006335654463066831,-4.823146781123434e-6,0.7847868925780568,0.0
0.221,-0.00640300895556889,-4.918682395174678e-6,0.7847868925780567,0.0
0.222,-0.006470641540243793,-5.0155652377269905e-6,0.7847868925780567,0.0
0.223,-0.006538550047677116,-5.113805658931445e-6,0.7847868925780566,0.0
0.224,-0.0066067323103951026,-5.213413999671139e-6,0.7847868925780566,0.0
0.225,-0.006675186163394908,-5.3144005913137796e-6,0.7847868925780568,0.0
0.226,-0.006743909444692164,-5.416775755549049e-6,0.7847868925780567,0.0
0.227,-0.006812899995827237,-5.520549804213619e-6,0.7847868925780567,0.0
0.228,-0.006882155662398581,-5.625733039128517e-6,0.7847868925780566,0.0
0.229,-0.006951674294591648,-5.732335751977699e-6,0.7847868925780568,0.0
0.23,-0.0070214537476731564,-5.840368224207214e-6,0.7847868925780567,0.0
0.231,-0.007091491882522227,-5.949840726907248e-6,0.7847868925780568,0.0
0.232,-0.007161786566141082,-6.0607635207956395e-6,0.7847868925780568,0.0
0.233,-0.007232335672137324,-6.173146856122257e-6,0.7847868925780567,0.0
0.234,-0.007303137081236866,-6.287000972676586e-6,0.7847868925780566,0.0
0.235,-0.007374188681779081,-6.402336099759973e-6,0.7847868925780568,0.0
0.236,-0.007445488370221742,-6.519162456227693e-6,0.7847868925780567,0.0
0.237,-0.007517034051580218,-6.637490250521912e-6,0.7847868925780566,0.0
0.238,-0.007588823639959941,-6.7573296807044245e-6,0.7847868925780568,0.0
0.239,-0.0076608550589924995,-6.878690934577873e-6,0.7847868925780566,0.0
0.24,-0.007733126242354338,-7.001584189762723e-6,0.7847868925780567,0.0
0.241,-0.007805635134166877,-7.126019613824981e-6,0.7847868925780566,0.0
0.242,-0.007878379689524984,-7.252007364424084e-6,0.7847868925780566,0.0
0.243,-0.007951357874901532,-7.379557589487235e-6,0.7847868925780567,0.0
0.244,-0.008024567668635907,-7.508680427367048e-6,0.7847868925780568,0.0
0.245,-0.008098007061343893,-7.639386007086794e-6,0.7847868925780567,0.0
0.246,-0.008171674056391076,-7.771684448547918e-6,0.7847868925780569,0.0
0.247,-0.00824556667030496,-7.905585862767696e-6,0.7847868925780566,0.0
0.248,-0.008319682933231043,-8.041100352189313e-6,0.7847868925780567,0.0
0.249,-0.008394020889308962,-8.178238010920613e-6,0.7847868925780567,0.0
0.25,-0.00846857859714234,-8.317008925100115e-6,0.7847868925780567,0.0
0.251,-0.008543354130190028,-8.457423173185638e-6,0.7847868925780568,0.0
0.252,-0.008618345577164455,-8.5994908263381e-6,0.7847868925780568,0.0
0.253,-0.008693551042449954,-8.743221948781478e-6,0.7847868925780568,0.0
0.254,-0.008768968646480246,-8.888626598185095e-6,0.7847868925780568,0.0
0.255,-0.008844596526153659,-9.035714826122459e-6,0.7847868925780567,0.0
0.256,-0.008920432835191061,-9.184496678427741e-6,0.7847868925780567,0.0
0.257,-0.008996475744520893,-9.334982195746341e-6,0.7847868925780567,0.0
0.258,-0.009072723442662856,-9.487181413932785e-6,0.7847868925780564,0.0
0.259,-0.009149174136090288,-9.64110436457396e-6,0.7847868925780566,0.0
0.26,-0.00922582604957034,-9.796761075494143e-6,0.7847868925780567,0.0
0.261,-0.009302677426545003,-9.954161571325499e-6,0.7847868925780566,0.0
0.262,-0.009379726529459731,-1.0113315873994892e-5,0.7847868925780566,0.0
0.263,-0.009456971640113387,-1.0274234003348169e-5,0.7847868925780566,0.0
0.264,-0.00953441105998376,-1.0436925977722403e-5,0.7847868925780567,0.0
0.265,-0.009612043110589497,-1.0601401814547403e-5,0.7847868925780566,0.0
0.266,-0.009689866133741898,-1.0767671530986268e-5,0.7847868925780567,0.0
0.267,-0.009767878491934834,-1.0935745144577663e-5,0.7847868925780566,0.0
0.268,-0.00984607856863251,-1.1105632673888942e-5,0.7847868925780566,0.0
0.269,-0.009924464768541696,-1.1277344139227607e-5,0.7847868925780566,0.0
