Time,Y-Force,Work Integrand,Mass,Mass error
0.0,1.3322676295501878e-15,-1.1011428314305904e-20,0.7071067811865477,0.0
0.001,-4.568444698094254e-7,-8.823218437439123e-13,0.7071067811865478,0.0
0.002,-3.636214054303366e-6,-2.7953846902577196e-11,0.7071067811865477,0.0
0.003,-1.2204716714592223e-5,-2.1010285799696752e-10,0.7071067811865477,0.0
0.004,-2.8759158212210423e-5,-8.760680992157973e-10,0.7071067811865477,0.0
0.005,-5.581756312889041e-5,-2.644731196440849e-9,0.7071067811865479,0.0
0.006,-9.581098160671431e-5,-6.508267584120998e-9,0.7071067811865477,0.0
0.007,-0.000151076097608005,-1.3907962565255436e-8,0.7071067811865477,0.0
0.008,-0.00022384864776903157,-2.6802568143429253e-8,0.7071067811865479,0.0
0.009,-0.0003162576535933326,-4.772914198727463e-8,0.7071067811865478,0.0
0.01,-0.00043032046366953125,-7.985637198363151e-8,0.7071067811865477,0.0
0.011,-0.0005679385976913309,-1.2703044821951465e-7,0.7071067811865476,0.0
0.012,-0.0007308943786932254,-1.9381359868695996e-7,0.7071067811865477,0.0
0.013,-0.0009208483361797803,-2.855154554321231e-7,0.7071067811865478,0.0
0.014,-0.0011393373582597732,-4.082174641927309e-7,0.7071067811865477,0.0
0.015,-0.0013877735680063452,-5.687905926645212e-7,0.7071067811865479,0.0
0.016,-0.0016674438957968718,-7.749066305195096e-7,0.7071067811865477,0.0
0.017,-0.0019795103169144568,-1.0350434079540224e-6,0.7071067811865479,0.0
0.018,-0.002325010721263787,-1.3584842890881303e-6,0.7071067811865479,0.0
0.019,-0.0027048603803594418,-1.7553123218500086e-6,0.7071067811865478,0.0
0.02,-0.003119853974737019,-2.2363994472242906e-6,0.7071067811865477,0.0
0.021,-0.0035706681441372012,-2.813391187972804e-6,0.7071067811865478,0.0
0.022,-0.004057864521414878,-3.498687250143946e-6,0.7071067811865477,0.0
0.023,-0.0045818932107946075,-4.305418480238981e-6,0.7071067811865478,0.0
0.024,-0.005143096670322755,-5.247420626408811e-6,0.7071067811865477,0.0
0.025,-0.005741713958638428,-6.33920535476418e-6,0.7071067811865477,0.0
0.026,-0.00637788530574257,-7.595928969911193e-6,0.7071067811865477,0.0
0.027,-0.007051656968263487,-9.03335928520931e-6,0.7071067811865477,0.0
0.028,-0.007762986329878707,-1.0667841080194218e-5,0.7071067811865478,0.0
0.029,-0.008511747208276965,-1.251626057247393e-5,0.7071067811865478,0.0
0.03,-0.009297735331201373,-1.4596009318558478e-5,0.7071067811865477,0.0
0.031,-0.010120673944669534,-1.6924947942376263e-5,0.7071067811865477,0.0
0.032,-0.010980219518130774,-1.952137007280334e-5,0.7071067811865477,0.0
0.033,-0.011875967512245289,-2.2403966851755174e-5,0.7071067811865477,0.0
0.034,-0.012807458176679276,-2.5591792352948166e-5,0.7071067811865477,0.0
0.035,-0.013774182346572239,-2.9104230228396526e-5,0.7071067811865477,0.0
0.036,-0.014775587208204488,-3.2960961875480154e-5,0.7071067811865477,0.0
0.037,-0.01581108200579706,-3.718193639196902e-5,0.7071067811865478,0.0
0.038,-0.016880043663484834,-4.178734255997751e-5,0.7071067811865477,0.0
0.039,-0.017981822297864714,-4.679758307276965e-5,0.7071067811865477,0.0
0.04,-0.019115746598716843,-5.2233251191518594e-5,0.7071067811865477,0.0
0.041,-0.020281129057165614,-5.811510999098688e-5,0.7071067811865477,0.0
0.042,-0.021477271022477318,-6.446407432545136e-5,0.7071067811865477,0.0
0.043,-0.022703467570446723,-7.130119561934295e-5,0.7071067811865477,0.0
0.044,-0.023959012168419225,-7.864764955960255e-5,0.7071067811865477,0.0
0.045,-0.025243201123451797,-8.652472674023238e-5,0.7071067811865478,0.0
0.046,-0.026555337802375067,-9.495382628413838e-5,0.7071067811865478,0.0
0.047,-0.027894736613836457,-0.00010395645244194816,0.7071067811865477,0.0
0.048,-0.029260726744448462,-0.0001135542141441244,0.7071067811865478,0.0
0.049,-0.030652655642648963,-0.00012376882745943237,0.7071067811865478,0.0
0.05,-0.03206989224550982,-0.00013462212089125018,0.7071067811865476,0.0
0.051,-0.033511829945269245,-0.00014613604342355712,0.7071067811865479,0.0
0.052,-0.034977889293865694,-0.00015833267520869165,0.7071067811865479,0.0
0.053,-0.036467520444952495,-0.0001712342407720422,0.7071067811865478,0.0
0.054,-0.03798020533438695,-0.0001848631245929171,0.7071067811865478,0.0
0.055,-0.03951545960114666,-0.00019924188890582326,0.7071067811865477,0.0
0.056,-0.04107283425202857,-0.00021439329355478747,0.7071067811865477,0.0
0.057,-0.04265191707411109,-0.00023034031771952505,0.7071067811865477,0.0
0.058,-0.04425233380029603,-0.00024710618332547847,0.7071067811865478,0.0
0.059,-0.04587374903382635,-0.00026471437993892503,0.7071067811865477,0.0
0.06,-0.047515866938425244,-0.00028318869094208846,0.7071067811865477,0.0
0.061,-0.04917843170154956,-0.00030255322077832845,0.7071067811865479,0.0
0.062,-0.05086122777850344,-0.00032283242305242155,0.7071067811865477,0.0
0.063,-0.05256407992600298,-0.000344051129268207,0.7071067811865477,0.0
0.064,-0.054286853033826965,-0.00036623457798493596,0.7071067811865477,0.0
0.065,-0.05602945176371943,-0.0003894084441711087,0.7071067811865477,0.0
0.066,-0.05779182000490213,-0.00041359886853839685,0.7071067811865477,0.0
0.067,-0.059573940155741134,-0.00043883248663594693,0.7071067811865478,0.0
0.068,-0.061375832241084005,-0.00046513645749047573,0.7071067811865477,0.0
0.069,-0.06319755287501172,-0.0004925384915799372,0.7071067811865477,0.0
0.07,-0.06503919407864434,-0.0005210668779321876,0.7071067811865476,0.0
0.071,-0.06690088196254074,-0.0005507505101449081,0.7071067811865477,0.0
0.072,-0.06878277528323551,-0.0005816189111290948,0.7071067811865477,0.0
0.073,-0.07068506388314422,-0.0006137022563826935,0.7071067811865476,0.0
0.074,-0.0726079670230444,-0.0006470313956080959,0.7071067811865475,0.0
0.075,-0.07455173161609174,-0.0006816378724948009,0.7071067811865477,0.0
0.076,-0.07651663037201661,-0.0007175539424936137,0.7071067811865477,0.0
0.077,-0.07850295985999445,-0.0007548125884178809,0.7071067811865477,0.0
0.078,-0.08051103849840402,-0.0007934475337137373,0.7071067811865477,0.0
0.079,-0.08254120447943647,-0.0008334932532504981,0.7071067811865476,0.0
0.08,-0.08459381363609708,-0.0008749849814898483,0.7071067811865477,0.0
0.081,-0.08666923725920794,-0.0009179587179001698,0.7071067811865477,0.0
0.082,-0.08876785987143077,-0.0009624512294933198,0.7071067811865477,0.0
0.083,-0.0908900769651857,-0.001008500050367643,0.7071067811865478,0.0
0.084,-0.09303629271126912,-0.0010561434781525547,0.7071067811865477,0.0
0.085,-0.09520691764442946,-0.0011054205672556966,0.7071067811865477,0.0
0.086,-0.09740236633229049,-0.0011563711188292483,0.7071067811865476,0.0
0.087,-0.09962305503356994,-0.0012090356673757803,0.7071067811865478,0.0
0.088,-0.1018693993515174,-0.0012634554639289614,0.7071067811865478,0.0
0.089,-0.10414181188780036,-0.0013196724557662555,0.7071067811865476,0.0
0.09,-0.10644069990191207,-0.0013777292626364415,0.7071067811865477,0.0
0.091,-0.10876646298506643,-0.0014376691493337597,0.7071067811865477,0.0
0.092,-0.11111949075088123,-0.0014995359947054428,0.7071067811865477,0.0
0.093,-0.1135001605482997,-0.0015633742570883014,0.7071067811865476,0.0
0.094,-0.11590883520238382,-0.001629228936155195,0.7071067811865478,0.0
0.095,-0.11834586078850862,-0.0016971455311897594,0.7071067811865477,0.0
0.096,-0.12081156444498697,-0.0017671699958147664,0.7071067811865476,0.0
0.097,-0.12330625222932046,-0.001839348689221837,0.7071067811865477,0.0
0.098,-0.125830207023355,-0.0019137283239545055,0.7071067811865477,0.0
0.099,-0.12838368649240017,-0.001990355910319954,0.7071067811865476,0.0
0.1,-0.1309669211035871,-0.0020692786975153726,0.7071067811865478,0.0
0.101,-0.13358011220859778,-0.002150544111569508,0.7071067811865476,0.0
0.102,-0.1362234301959937,-0.0022341996902186592,0.7071067811865477,0.0
0.103,-0.13889701271821275,-0.0023202930148491646,0.7071067811865477,0.0
0.104,-0.1416009629985684,-0.0024088716396566297,0.7071067811865477,0.0
0.105,-0.1443353482231382,-0.0024999830181874454,0.7071067811865477,0.0
0.106,-0.14710019802286833,-0.0025936744274415065,0.7071067811865477,0.0
0.107,-0.1498955030506286,-0.0026899928897388056,0.7071067811865477,0.0
0.108,-0.15272121365846392,-0.002788985092556727,0.7071067811865477,0.0
0.109,-0.1555772386795211,-0.0028906973065721923,0.7071067811865479,0.0
0.11,-0.15846344431964354,-0.0029951753021502346,0.7071067811865476,0.0
0.111,-0.1613796531628906,-0.0031024642645377104,0.7071067811865477,0.0
0.112,-0.1643256432955278,-0.0032126087080367183,0.7071067811865477,0.0
0.113,-0.16730114755246772,-0.003325652389440645,0.7071067811865477,0.0
0.114,-0.17030585289007139,-0.0034416382210368454,0.7071067811865477,0.0
0.115,-0.17333939988887437,-0.00356060818347868,0.7071067811865476,0.0
0.116,-0.17640138238957315,-0.0036826032388559554,0.7071067811865477,0.0
0.117,-0.17949134726504834,-0.0038076632442860386,0.7071067811865477,0.0
0.118,-0.18260879433110055,-0.0039358268663687995,0.7071067811865476,0.0
0.119,-0.18575317639803934,-0.004067131496845594,0.7071067811865476,0.0
0.12,-0.18892389946467425,-0.004201613169814135,0.7071067811865477,0.0
0.121,-0.19212032305866789,-0.0043393064809511064,0.7071067811865476,0.0
0.122,-0.19534176072176468,-0.004480244509011272,0.7071067811865478,0.0
0.123,-0.198587480631498,-0.004624458739607186,0.7071067811865477,0.0
0.124,-0.20185670637151,-0.004771978992117065,0.7071067811865477,0.0
0.125,-0.20514861784651472,-0.004922833349949314,0.7071067811865475,0.0
0.126,-0.20846235233945398,-0.005077048094455423,0.7071067811865476,0.0
0.127,-0.21179700570867688,-0.005234647642822013,0.7071067811865477,0.0
0.128,-0.21515163372271884,-0.0053956544902631146,0.7071067811865476,0.0
0.129,-0.21852525353497354,-0.005560089157090206,0.7071067811865476,0.0
0.13,-0.2219168453043192,-0.005727970141471542,0.7071067811865476,0.0
0.131,-0.22532535390184716,-0.005899313875388543,0.7071067811865476,0.0
0.132,-0.22874969074626206,-0.006074134686367028,0.7071067811865476,0.0
0.133,-0.23218873576657284,-0.006252444765468233,0.7071067811865477,0.0
0.134,-0.23564133947415433,-0.006434254141161402,0.7071067811865476,0.0
0.135,-0.23910632513758223,-0.006619570659272156,0.7071067811865476,0.0
0.136,-0.24258249105303076,-0.006808399969168086,0.7071067811865475,0.0
0.137,-0.24606861290262128,-0.007000745516316222,0.7071067811865477,0.0
0.138,-0.24956344619231619,-0.007196608541320551,0.7071067811865475,0.0
0.139,-0.25306572876115396,-0.0073959880855172105,0.7071067811865477,0.0
0.14,-0.2565741833523463,-0.0075988810031679815,0.7071067811865476,0.0
0.141,-0.26008752023730164,-0.007805281980268926,0.7071067811865475,0.0
0.142,-0.2636044398825339,-0.008015183559949748,0.7071067811865476,0.0
0.143,-0.26712363564970065,-0.008228576174410918,0.7071067811865476,0.0
0.144,-0.27064379651843806,-0.008445448183309848,0.7071067811865475,0.0
0.145,-0.2741636098240541,-0.008665785918409899,0.7071067811865475,0.0
0.146,-0.2776817639959166,-0.008889573734438883,0.7071067811865477,0.0
0.147,-0.2811969512836372,-0.009116794066012228,0.7071067811865475,0.0
0.148,-0.2847078704660939,-0.009347427490251282,0.7071067811865476,0.0
0.149,-0.28821322953057926,-0.009581452794885363,0.7071067811865476,0.0
0.15,-0.2917117483116578,-0.00981884705155936,0.7071067811865475,0.0
0.151,-0.2952021610791524,-0.010059585694025652,0.7071067811865475,0.0
0.152,-0.2986832190651274,-0.010303642600872062,0.7071067811865476,0.0
0.153,-0.3021536929198847,-0.010550990182404865,0.7071067811865476,0.0
0.154,-0.3056123750873021,-0.01080159947129182,0.7071067811865475,0.0
0.155,-0.309058082090238,-0.011055440216527823,0.7071067811865476,0.0
0.156,-0.31248965671699747,-0.011312480980285193,0.7071067811865475,0.0
0.157,-0.3159059701004683,-0.011572689237171425,0.7071067811865475,0.0
0.158,-0.3193059236817746,-0.011836031475416571,0.7071067811865476,0.0
0.159,-0.32268845105113275,-0.012102473299483406,0.7071067811865476,0.0
0.16,-0.32605251965883175,-0.012371979533593619,0.7071067811865475,0.0
0.161,-0.32939713239016344,-0.012644514325646339,0.7071067811865475,0.0
0.162,-0.3327213289984776,-0.012920041251005966,0.7071067811865477,0.0
0.163,-0.3360241873914189,-0.013198523415623026,0.7071067811865475,0.0
0.164,-0.3393048247659989,-0.013479923557962743,0.7071067811865475,0.0
0.165,-0.3425623985888242,-0.013764204149212027,0.7071067811865475,0.0
0.166,-0.3457961074186304,-0.01405132749124606,0.7071067811865475,0.0
0.167,-0.3490051915688621,-0.014341255811835166,0.7071067811865475,0.0
0.168,-0.3521889336090043,-0.0146339513566007,0.7071067811865476,0.0
0.169,-0.3553466587039016,-0.014929376477224948,0.7071067811865475,0.0
0.17,-0.358477734791121,-0.015227493715456342,0.7071067811865476,0.0
0.171,-0.3615815725973066,-0.015528265882455317,0.7071067811865477,0.0
0.172,-0.36465762549503733,-0.015831656133059077,0.7071067811865476,0.0
0.173,-0.3677053892024835,-0.01613762803457386,0.7071067811865475,0.0
0.174,-0.3707244013289248,-0.016446145629713707,0.7071067811865475,0.0
0.175,-0.37371424076988724,-0.01675717349335583,0.7071067811865475,0.0
0.176,-0.3766745269562408,-0.017070676782805244,0.7071067811865474,0.0
0.177,-0.3796049189623867,-0.01738662128129434,0.7071067811865475,0.0
0.178,-0.3825051144791458,-0.017704973434486543,0.7071067811865475,0.0
0.179,-0.3853748486577544,-0.018025700379784668,0.7071067811865475,0.0
0.18,-0.3882138928315948,-0.018348769968289325,0.7071067811865475,0.0
0.181,-0.39102205312322535,-0.01867415077928941,0.7071067811865475,0.0
0.182,-0.3937991689443714,-0.01900181212720957,0.7071067811865474,0.0
0.183,-0.39654511139725024,-0.019331724060985933,0.7071067811865476,0.0
0.184,-0.399259781585811,-0.019663857355869868,0.7071067811865475,0.0
0.185,-0.4019431088459191,-0.019998183497724073,0.7071067811865475,0.0
0.186,-0.4045950489038326,-0.02033467465989716,0.7071067811865474,0.0
0.187,-0.40721558197240704,-0.02067330367281643,0.7071067811865475,0.0
0.188,-0.409804710794881,-0.021014043986480394,0.7071067811865475,0.0
0.189,-0.41236245864615473,-0.021356869626066324,0.7071067811865475,0.0
0.19,-0.41488886730145236,-0.021701755140914963,0.7071067811865474,0.0
0.191,-0.4173839949825444,-0.022048675547194974,0.7071067811865474,0.0
0.192,-0.41984791429164403,-0.022397606264570158,0.7071067811865475,0.0
0.193,-0.42228071014272217,-0.02274852304725823,0.7071067811865474,0.0
0.194,-0.4246824777005802,-0.023101401909872463,0.7071067811865474,0.0
0.195,-0.42705332033709276,-0.02345621904848756,0.7071067811865475,0.0
0.196,-0.4293933476144747,-0.02381295075739824,0.7071067811865475,0.0
0.197,-0.4317026733063294,-0.024171573342180105,0.7071067811865475,0.0
0.198,-0.43398141346760477,-0.024532063029745338,0.7071067811865476,0.0
0.199,-0.43622968455280464,-0.024894395875316278,0.7071067811865475,0.0
0.2,-0.43844760160142027,-0.02525854766762725,0.7071067811865475,0.0
0.201,-0.4406352764732162,-0.025624493830439604,0.7071067811865476,0.0
0.202,-0.4427928161761292,-0.025992209324235807,0.7071067811865475,0.0
0.203,-0.4449203212840498,-0.026361668547872377,0.7071067811865475,0.0
0.204,-0.4470178844467654,-0.026732845240397374,0.7071067811865476,0.0
0.205,-0.44908558899840934,-0.027105712383647007,0.7071067811865475,0.0
0.206,-0.45112350766975995,-0.027480242106230082,0.7071067811865475,0.0
0.207,-0.45313170140990433,-0.027856405589507777,0.7071067811865474,0.0
0.208,-0.4551102183214928,-0.02823417297616873,0.7071067811865475,0.0
0.209,-0.45705909271376477,-0.028613513282005523,0.7071067811865475,0.0
0.21,-0.45897834427670237,-0.028994394311459365,0.7071067811865474,0.0
0.211,-0.4608679773790634,-0.029376782577517704,0.7071067811865474,0.0
0.212,-0.46272798049245534,-0.029760643226502875,0.7071067811865474,0.0
0.213,-0.46455832574319444,-0.030145939968297203,0.7071067811865475,0.0
0.214,-0.4663589685872833,-0.03053263501283579,0.7071067811865475,0.0
0.215,-0.4681298476112743,-0.030920689013438335,0.7071067811865475,0.0
0.216,-0.4698708844896906,-0.031310061015388746,0.7071067811865475,0.0
0.217,-0.4715819840558817,-0.03170070841248038,0.7071067811865475,0.0
0.218,-0.47326303449427964,-0.03209258691149629,0.7071067811865475,0.0
0.219,-0.4749139076571405,-0.03248565050472575,0.7071067811865474,0.0
0.22,-0.4765344595032932,-0.032879851450851996,0.7071067811865475,0.0
0.221,-0.47812453065604643,-0.03327514026449463,0.7071067811865474,0.0
0.222,-0.47968394707667583,-0.03367146571465306,0.7071067811865472,0.0
0.223,-0.4812125208496516,-0.03406877483226739,0.7071067811865472,0.0
0.224,-0.48271005107514187,-0.034467012927062335,0.7071067811865475,0.0
0.225,-0.4841763248638786,-0.03486612361379696,0.7071067811865474,0.0
0.226,-0.4856111184291736,-0.03526604884800187,0.7071067811865472,0.0
0.227,-0.487014198270447,-0.03566672897124665,0.7071067811865475,0.0
0.228,-0.48838532244214505,-0.036068102765928076,0.7071067811865475,0.0
0.229,-0.4897242419018273,-0.036470107519528394,0.7071067811865474,0.0
0.23,-0.49103070193075293,-0.03687267909825721,0.7071067811865474,0.0
0.231,-0.49230444362003123,-0.03727575202992944,0.7071067811865474,0.0
0.232,-0.4935452054153653,-0.037679259595914505,0.7071067811865475,0.0
0.233,-0.49475272471291376,-0.03808313393191573,0.7071067811865474,0.0
0.234,-0.49592673949896904,-0.038487306137340985,0.7071067811865474,0.0
0.235,-0.49706699002579224,-0.038891706392935016,0.7071067811865475,0.0
0.236,-0.49817322051595836,-0.03929626408635552,0.7071067811865472,0.0
0.237,-0.4992451808874936,-0.03970090794530273,0.7071067811865472,0.0
0.238,-0.5002826284920863,-0.04010556617777948,0.7071067811865476,0.0
0.239,-0.5012853298586024,-0.040510166619057625,0.7071067811865474,0.0
0.24,-0.5022530624342112,-0.04091463688483539,0.7071067811865471,0.0
0.241,-0.503185616315581,-0.04131890453011433,0.7071067811865472,0.0
0.242,-0.5040827959625589,-0.041722897213220145,0.7071067811865474,0.0
0.243,-0.5049444218870063,-0.04212654286442777,0.7071067811865474,0.0
0.244,-0.5057703323095515,-0.04252976985859194,0.7071067811865475,0.0
0.245,-0.506560384777289,-0.04293250719118147,0.7071067811865472,0.0
0.246,-0.5073144577356219,-0.043334684657086175,0.7071067811865474,0.0
0.247,-0.5080324520475883,-0.04373623303155025,0.7071067811865474,0.0
0.248,-0.5087142924546031,-0.04413708425259827,0.7071067811865474,0.0
0.249,-0.5093599289723998,-0.044537171604259074,0.7071067811865474,0.0
0.25,-0.5099693382165738,-0.044936429899944313,0.7071067811865475,0.0
0.251,-0.5105425246524504,-0.04533479566528248,0.7071067811865474,0.0
0.252,-0.5110795217640711,-0.045732207319751805,0.7071067811865474,0.0
0.253,-0.5115803931379115,-0.046128605356420355,0.7071067811865474,0.0
0.254,-0.5120452334568038,-0.04652393251912482,0.7071067811865472,0.0
0.255,-0.5124741694003552,-0.0469181339764321,0.7071067811865472,0.0
0.256,-0.5128673604483556,-0.047311157491712,0.7071067811865474,0.0
0.257,-0.5132249995840694,-0.04770295358869828,0.7071067811865474,0.0
0.258,-0.5135473138947875,-0.04809347571189057,0.7071067811865474,0.0
0.259,-0.5138345650674387,-0.04848268038120129,0.7071067811865475,0.0
0.26,-0.5140870497774475,-0.04887052734025635,0.7071067811865475,0.0
0.261,-0.5143050999694929,-0.049256979697775205,0.7071067811865472,0.0
0.262,-0.5144890830292335,-0.04964200406150143,0.7071067811865474,0.0
0.263,-0.5146394018455034,-0.05002557066416158,0.7071067811865474,0.0
0.264,-0.5147564947629597,-0.050407653480970815,0.7071067811865472,0.0
0.265,-0.5148408354254297,-0.0507882303382326,0.7071067811865474,0.0
0.266,-0.5148929325109006,-0.05116728301262524,0.7071067811865475,0.0
0.267,-0.5149133293592327,-0.051544797320769886,0.7071067811865474,0.0
0.268,-0.5149026034942099,-0.05192076319876032,0.7071067811865472,0.0
0.269,-0.5148613660419739,-0.052295174771330444,0.7071067811865475,0.0
0.27,-0.5147902610482014,-0.05266803041040102,0.7071067811865472,0.0
0.271,-0.5146899646966947,-0.05303933278277731,0.7071067811865474,0.0
0.272,-0.5145611844327025,-0.053409088886813866,0.7071067811865475,0.0
0.273,-0.5144046579941293,-0.05377731007792058,0.7071067811865474,0.0
0.274,-0.5142211523546858,-0.05414401208278308,0.7071067811865474,0.0
0.275,-0.5140114625828978,-0.05450921500227984,0.7071067811865475,0.0
0.276,-0.5137764106214053,-0.05487294330307216,0.7071067811865475,0.0
