Time,Y-Force,Work Integrand,Mass,Mass error
0.0,0.0,3.3881317890172014e-21,0.7853594291759575,0.0
0.001,-1.6826812729853202e-6,-2.522759896593323e-12,0.7853594291759578,0.0
0.002,-1.3272967399835522e-5,-7.955816660033897e-11,0.7853594291759578,0.0
0.003,-4.389462216591866e-5,-5.916885331775572e-10,0.7853594291759578,0.0
0.004,-0.00010137991926884027,-2.4282518263867947e-9,0.7853594291759576,0.0
0.005,-0.0001919048312193361,-7.178440093161178e-9,0.7853594291759576,0.0
0.006,-0.0003197688708307389,-1.7215716467891963e-8,0.7853594291759576,0.0
0.007,-0.00048732719361233023,-3.569318380970492e-8,0.7853594291759575,0.0
0.008,-0.000695069499982548,-6.645976531068467e-8,0.7853594291759576,0.0
0.009,-0.0009418285652365022,-1.1391722590762968e-7,0.7853594291759578,0.0
0.01,-0.001225091847666171,-1.8284495826404812e-7,0.7853594291759578,0.0
0.011,-0.0015413832564812324,-2.7822237521599224e-7,0.7853594291759577,0.0
0.012,-0.0018866791340754752,-4.050775568017811e-7,0.7853594291759574,0.0
0.013,-0.0022568228158381665,-5.683859040196216e-7,0.7853594291759576,0.0
0.014,-0.002647905456405031,-7.730348147538639e-7,0.7853594291759575,0.0
0.015,-0.0030565865854135232,-1.0238609877818907e-6,0.7853594291759578,0.0
0.016,-0.0034803353373731305,-1.325757179397244e-6,0.7853594291759576,0.0
0.017,-0.003917581660326519,-1.68383634072968e-6,0.7853594291759574,0.0
0.018,-0.00436777521985432,-2.10363410803739e-6,0.7853594291759576,0.0
0.019,-0.004831357432236061,-2.591326339083499e-6,0.7853594291759574,0.0
0.02,-0.005309658476803758,-3.1539371352193486e-6,0.7853594291759575,0.0
0.021,-0.00580473583437735,-3.7995145105234555e-6,0.7853594291759577,0.0
0.022,-0.006319173659444122,-4.5372551559156975e-6,0.7853594291759574,0.0
0.023,-0.006855863106456805,-5.377565910160299e-6,0.7853594291759576,0.0
0.024,-0.007417782761951486,-6.332056734646447e-6,0.7853594291759578,0.0
0.025,-0.00800779589428835,-7.413467292755223e-6,0.7853594291759577,0.0
0.026,-0.008628477726976058,-8.635535821755781e-6,0.7853594291759577,0.0
0.027,-0.009281981820716378,-1.0012824184817831e-5,0.7853594291759574,0.0
0.028,-0.009969950358369228,-1.1560516358744694e-5,0.7853594291759574,0.0
0.029,-0.010693469065825134,-1.3294208963754786e-5,0.7853594291759575,0.0
0.03,-0.011453063989692591,-1.5229711840291857e-5,0.7853594291759575,0.0
0.031,-0.012248734611764789,-1.7382874403244937e-5,0.7853594291759575,0.0
0.032,-0.013080015924959554,-1.9769449989354582e-5,0.7853594291759576,0.0
0.033,-0.01394606114141661,-2.2405006175071386e-5,0.7853594291759575,0.0
0.034,-0.014845736577360658,-2.530488460231791e-5,0.7853594291759574,0.0
0.035,-0.01577772082371487,-2.8484209678345928e-5,0.7853594291759578,0.0
0.036,-0.016740601388410603,-3.19579419752929e-5,0.7853594291759575,0.0
0.037,-0.017732963390404866,-3.574096947623218e-5,0.7853594291759574,0.0
0.038,-0.018753466410262654,-3.9848228087972434e-5,0.7853594291759577,0.0
0.039,-0.019800907096032105,-4.4294842033586364e-5,0.7853594291759576,0.0
0.04,-0.020874266460065627,-4.9096274714074614e-5,0.7853594291759576,0.0
0.041,-0.021972741903090398,-5.426848120010201e-5,0.7853594291759577,0.0
0.042,-0.023095764827436138,-5.982805446498769e-5,0.7853594291759575,0.0
0.043,-0.02424300525319234,-6.579235860572873e-5,0.7853594291759575,0.0
0.044,-0.025414365160435715,-7.217964346451465e-5,0.7853594291759574,0.0
0.045,-0.026609962397902365,-7.900913616598094e-5,0.7853594291759574,0.0
0.046,-0.02783010698300714,-8.630110609411049e-5,0.7853594291759578,0.0
0.047,-0.029075271527135627,-9.407690076836811e-5,0.7853594291759578,0.0
0.048,-0.030346057403516813,-0.00010235895100128845,0.7853594291759574,0.0
0.049,-0.03164315816644869,-0.00011117074470014948,0.7853594291759576,0.0
0.05,-0.03296732164901739,-0.00012053676977922829,0.7853594291759575,0.0
0.051,-0.03431931211398265,-0.0001304824279092908,0.7853594291759577,0.0
0.052,-0.035699873798863635,-0.00014103392223685507,0.7853594291759578,0.0
0.053,-0.03710969716242385,-0.00015221812370552236,0.7853594291759576,0.0
0.054,-0.038549389082594754,-0.00016406242209540157,0.7853594291759577,0.0
0.055,-0.040019448154660964,-0.00017659456923673975,0.7853594291759575,0.0
0.056,-0.041520246076323986,-0.0001898425228918487,0.7853594291759577,0.0
0.057,-0.04305201587644136,-0.0002038343003917132,0.7853594291759574,0.0
0.058,-0.044614847448679384,-0.0002185978511395053,0.7853594291759578,0.0
0.059,-0.046208690502550276,-0.00023416095647399958,0.7853594291759576,0.0
0.06,-0.04783336466268917,-0.00025055116410315284,0.7853594291759575,0.0
0.061,-0.04948857606040047,-0.00026779576241906834,0.7853594291759574,0.0
0.062,-0.051173939397368695,-0.00028592179759372,0.7853594291759575,0.0
0.063,-0.052889004151139396,-0.000304956133598034,0.7853594291759576,0.0
0.064,-0.05463328335890205,-0.0003249255523824369,0.7853594291759576,0.0
0.065,-0.05640628328092223,-0.0003458568886333061,0.7853594291759576,0.0
0.066,-0.058207532217903424,-0.0003677771909999135,0.7853594291759576,0.0
0.067,-0.060036606840457196,-0.0003907138996728284,0.7853594291759577,0.0
0.068,-0.061893154576748266,-0.0004146950288593954,0.7853594291759576,0.0
0.069,-0.06377691088175608,-0.000439749342149404,0.7853594291759575,0.0
0.07,-0.06568771055762879,-0.000465906509057595,0.7853594291759575,0.0
0.071,-0.06762549268342122,-0.0004931972321418794,0.7853594291759577,0.0
0.072,-0.0695902991173587,-0.0005216533359628725,0.7853594291759576,0.0
0.073,-0.0715822669267756,-0.0005513078116293757,0.7853594291759577,0.0
0.074,-0.07360161545593069,-0.0005821948135889266,0.7853594291759575,0.0
0.075,-0.07564862903773584,-0.0006143496084744307,0.7853594291759577,0.0
0.076,-0.07772363657498582,-0.0006478084789688261,0.7853594291759575,0.0
0.077,-0.07982698935060561,-0.0006826085885927001,0.7853594291759578,0.0
0.078,-0.08195903846919661,-0.0007187878158521205,0.7853594291759575,0.0
0.079,-0.08412011328571811,-0.0007563845681234915,0.7853594291759574,0.0
0.08,-0.08631050204950874,-0.0007954375868883014,0.7853594291759575,0.0
0.081,-0.0885304357940564,-0.0008359857563705574,0.7853594291759576,0.0
0.082,-0.09078007625163353,-0.0008780679272619267,0.7853594291759579,0.0
0.083,-0.09305950828545484,-0.0009217227660697318,0.7853594291759577,0.0
0.084,-0.0953687370294527,-0.0009669886387854744,0.7853594291759579,0.0
0.085,-0.09770768962777554,-0.001013903535171428,0.7853594291759576,0.0
0.086,-0.10007622119035187,-0.0010625050371766143,0.7853594291759578,0.0
0.087,-0.10247412434402925,-0.001112830332012673,0.7853594291759578,0.0
0.088,-0.10490114157355679,-0.001164916267455584,0.7853594291759578,0.0
0.089,-0.10735697942293676,-0.0012187994441934837,0.7853594291759577,0.0
0.09,-0.1098413235687059,-0.0012745163376985877,0.7853594291759575,0.0
0.091,-0.11235385378503082,-0.0013321034403278344,0.7853594291759575,0.0
0.092,-0.11489425789012886,-0.0013915974132570827,0.7853594291759577,0.0
0.093,-0.11746224388780435,-0.001453035237498259,0.7853594291759576,0.0
0.094,-0.12005754968550875,-0.0015164543536457555,0.7853594291759577,0.0
0.095,-0.1226799499673179,-0.0015818927811051334,0.7853594291759579,0.0
0.096,-0.12532926001246336,-0.0016493892092724824,0.785359429175958,0.0
0.097,-0.12800533646192047,-0.0017189830553218516,0.7853594291759575,0.0
0.098,-0.1307080752331271,-0.0017907144857498385,0.7853594291759575,0.0
0.099,-0.13343740695343964,-0.0018646244014288854,0.7853594291759575,0.0
0.1,-0.13619329041680217,-0.0019407543884393322,0.7853594291759575,0.0
0.101,-0.1389757046585287,-0.002019146639218386,0.7853594291759576,0.0
0.102,-0.14178464028661297,-0.0020998438504008926,0.7853594291759577,0.0
0.103,-0.14462009070526793,-0.0021828891050461804,0.7853594291759577,0.0
0.104,-0.1474820438206561,-0.002268325747641152,0.7853594291759574,0.0
0.105,-0.15037047473639387,-0.0023561972603406284,0.7853594291759577,0.0
0.106,-0.15328533983573367,-0.002446547148359221,0.7853594291759576,0.0
0.107,-0.15622657251807226,-0.0025394188413312008,0.7853594291759576,0.0
0.108,-0.1591940807196579,-0.0026348556159124167,0.7853594291759577,0.0
0.109,-0.1621877462121697,-0.0027329005430280356,0.7853594291759574,0.0
0.11,-0.16520742554684764,-0.002833596461123092,0.7853594291759576,0.0
0.111,-0.16825295240357585,-0.002936985974685301,0.7853594291759577,0.0
0.112,-0.17132414101990268,-0.0030431114753343633,0.7853594291759574,0.0
0.113,-0.1744207903166175,-0.003152015181015315,0.7853594291759576,0.0
0.114,-0.17754268830784703,-0.0032637391874184296,0.7853594291759575,0.0
0.115,-0.18068961638217118,-0.0033783255247449642,0.7853594291759575,0.0
0.116,-0.1838613530674671,-0.0034958162123955513,0.7853594291759576,0.0
0.117,-0.18705767694088715,-0.0036162533041118813,0.7853594291759578,0.0
0.118,-0.19027836841462986,-0.003739678916548188,0.7853594291759577,0.0
0.119,-0.193523210211902,-0.0038661352351681277,0.7853594291759576,0.0
0.12,-0.19679198644146245,-0.003995664492707336,0.7853594291759579,0.0
0.121,-0.20008448027896764,-0.0041283089171708365,0.7853594291759575,0.0
0.122,-0.2034004703626089,-0.004264110648335373,0.7853594291759578,0.0
0.123,-0.20673972610582303,-0.004403111623957956,0.7853594291759576,0.0
0.124,-0.21010200221563657,-0.004545353439197014,0.7853594291759577,0.0
0.125,-0.21348703277703995,-0.00469087718504245,0.7853594291759572,0.0
0.126,-0.21689452531808562,-0.004839723273691601,0.7853594291759577,0.0
0.127,-0.22032415530245997,-0.004991931260651707,0.7853594291759574,0.0
0.128,-0.2237755615043895,-0.00514753967476185,0.7853594291759577,0.0
0.129,-0.22724834270121774,-0.005306585868177768,0.7853594291759577,0.0
0.13,-0.23074205607221687,-0.005469105898537725,0.7853594291759578,0.0
0.131,-0.23425621761747406,-0.005635134454910394,0.7853594291759576,0.0
0.132,-0.23779030481045282,-0.005804704837695462,0.7853594291759575,0.0
0.133,-0.24134376157580584,-0.005977849000369677,0.7853594291759574,0.0
0.134,-0.24491600554532655,-0.006154597657902758,0.7853594291759578,0.0
0.135,-0.24850643739732492,-0.0063349804629157375,0.7853594291759576,0.0
0.136,-0.2521144519355498,-0.006519026246393916,0.7853594291759574,0.0
0.137,-0.25573945042393675,-0.006706763315210945,0.7853594291759577,0.0
0.138,-0.25938085357140617,-0.006898219794165536,0.7853594291759578,0.0
0.139,-0.26303811446634806,-0.007093423995955153,0.7853594291759575,0.0
0.14,-0.2667107307021461,-0.0072924047988580445,0.7853594291759574,0.0
0.141,-0.27039825491874137,-0.0074951920091455015,0.7853594291759574,0.0
0.142,-0.27410030301510413,-0.0077018166836802515,0.7853594291759576,0.0
0.143,-0.27781655936519356,-0.007912311387979681,0.7853594291759574,0.0
0.144,-0.28154677849203,-0.008126710366344575,0.7853594291759574,0.0
0.145,-0.2852907828170723,-0.008345049603519145,0.7853594291759578,0.0
0.146,-0.2890484562951319,-0.008567366761645046,0.7853594291759574,0.0
0.147,-0.29281973395870287,-0.00879370098184011,0.7853594291759576,0.0
0.148,-0.2966045876161649,-0.009024092546243437,0.7853594291759575,0.0
0.149,-0.30040300816221044,-0.009258582403478474,0.7853594291759578,0.0
0.15,-0.3042149851522622,-0.009497211567722236,0.7853594291759577,0.0
0.151,-0.308040484452639,-0.009740020408516917,0.7853594291759577,0.0
0.152,-0.3118794248940393,-0.009987047854594013,0.7853594291759576,0.0
0.153,-0.3157316549200353,-0.010238330539959463,0.7853594291759575,0.0
0.154,-0.31959693022949853,-0.01049390192389342,0.7853594291759574,0.0
0.155,-0.3234748933626199,-0.010753791418164925,0.7853594291759576,0.0
0.156,-0.3273650560772916,-0.011018023554495895,0.7853594291759578,0.0
0.157,-0.33126678521293407,-0.011286617223149414,0.7853594291759575,0.0
0.158,-0.3351792925532504,-0.01155958500962219,0.7853594291759575,0.0
0.159,-0.33910162898951013,-0.011836932651039744,0.7853594291759578,0.0
0.16,-0.3430326830666499,-0.01211865862737882,0.7853594291759575,0.0
0.161,-0.3469711837795111,-0.012404753895512224,0.7853594291759575,0.0
0.162,-0.3509157072895106,-0.012695201766773093,0.7853594291759575,0.0
0.163,-0.3548646870655614,-0.012989977921780874,0.7853594291759572,0.0
0.164,-0.35881642682598325,-0.013289050550110246,0.7853594291759575,0.0
0.165,-0.36276911557705827,-0.013592380597394219,0.7853594291759574,0.0
0.166,-0.36672084401174265,-0.013899922098971826,0.7853594291759575,0.0
0.167,-0.3706696215481857,-0.014211622577347413,0.7853594291759575,0.0
0.168,-0.3746133933473632,-0.01452742348061059,0.7853594291759574,0.0
0.169,-0.37855005674647924,-0.014847260640463517,0.7853594291759578,0.0
0.17,-0.3824774766689716,-0.015171064731444028,0.7853594291759575,0.0
0.171,-0.3863934997131486,-0.015498761716972703,0.7853594291759574,0.0
0.172,-0.3902959667679655,-0.01583027327266369,0.7853594291759577,0.0
0.173,-0.39418272414441713,-0.01616551718244559,0.7853594291759576,0.0
0.174,-0.39805163333537896,-0.016504407708055308,0.7853594291759574,0.0
0.175,-0.4019005796160635,-0.016846855936953148,0.7853594291759577,0.0
0.176,-0.405727479766647,-0.0171927701173281,0.7853594291759576,0.0
0.177,-0.40953028923387524,-0.017542055991342537,0.7853594291759574,0.0
0.178,-0.4133070090500728,-0.017894617138935573,0.7853594291759576,0.0
0.179,-0.41705569279674215,-0.018250355344298752,0.7853594291759577,0.0
0.18,-0.4207744538422087,-0.018609170995625562,0.7853594291759575,0.0
0.181,-0.4244614730028742,-0.018970963526031448,0.7853594291759577,0.0
0.182,-0.42811500668529945,-0.01933563189994887,0.7853594291759576,0.0
0.183,-0.4317333954678746,-0.019703075145042687,0.7853594291759577,0.0
0.184,-0.4353150729862951,-0.020073192925214617,0.7853594291759577,0.0
0.185,-0.4388585749027447,-0.020445886145830816,0.7853594291759578,0.0
0.186,-0.4423625476717481,-0.02082105757833226,0.7853594291759574,0.0
0.187,-0.44582575677033787,-0.021198612488140575,0.7853594291759576,0.0
0.188,-0.4492470940401536,-0.02157845924749524,0.7853594291759577,0.0
0.189,-0.4526255837944504,-0.021960509913723572,0.7853594291759576,0.0
0.19,-0.4559603873733269,-0.022344680753520585,0.7853594291759577,0.0
0.191,-0.4592508058829412,-0.022730892695094623,0.7853594291759576,0.0
0.192,-0.4624962809247892,-0.023119071692415394,0.7853594291759577,0.0
0.193,-0.4656963932040137,-0.02350914898910597,0.7853594291759577,0.0
0.194,-0.4688508589957474,-0.0239010612735526,0.7853594291759576,0.0
0.195,-0.47195952453890966,-0.02429475072125141,0.7853594291759574,0.0
0.196,-0.4750223585129558,-0.024690164925029262,0.7853594291759577,0.0
0.197,-0.4780394428287782,-0.025087256718259343,0.7853594291759575,0.0
0.198,-0.4810109620267813,-0.02548598390028528,0.7853594291759576,0.0
0.199,-0.4839371916199755,-0.02588630887675672,0.7853594291759575,0.0
0.2,-0.48681848574596787,-0.026288198230282556,0.7853594291759579,0.0
0.201,-0.48965526449872643,-0.026691622238612184,0.7853594291759576,0.0
0.202,-0.49244800129982647,-0.02709655435843407,0.7853594291759575,0.0
0.203,-0.49519721064125344,-0.027502970692806064,0.7853594291759572,0.0
0.204,-0.4979034364906636,-0.027910849459305012,0.7853594291759576,0.0
0.205,-0.5005672415986742,-0.028320170474317966,0.7853594291759578,0.0
0.206,-0.5031891978895999,-0.028730914666610666,0.7853594291759576,0.0
0.207,-0.5057698780562272,-0.029143063630621954,0.7853594291759577,0.0
0.208,-0.5083098484189372,-0.029556599227004238,0.7853594291759576,0.0
0.209,-0.5108096630530063,-0.0299715032349349,0.7853594291759577,0.0
0.21,-0.5132698591377998,-0.03038775705785919,0.7853594291759575,0.0
0.211,-0.5156909534401122,-0.030805341481705023,0.7853594291759576,0.0
0.212,-0.5180734398113229,-0.031224236482378015,0.7853594291759576,0.0
0.213,-0.5204177875566207,-0.031644421077550375,0.7853594291759574,0.0
0.214,-0.5227244405223908,-0.03206587321650016,0.7853594291759576,0.0
0.215,-0.5249938167454089,-0.03248856970096167,0.7853594291759575,0.0
0.216,-0.5272263085136897,-0.03291248612971984,0.7853594291759574,0.0
0.217,-0.5294222827014112,-0.03333759685982665,0.7853594291759577,0.0
0.218,-0.5315820812584897,-0.03376387497793197,0.7853594291759574,0.0
0.219,-0.5337060217573204,-0.03419129227606868,0.7853594291759574,0.0
0.22,-0.5357943979223707,-0.034619819227356144,0.7853594291759574,0.0
0.221,-0.5378474800926152,-0.035049424958315284,0.7853594291759574,0.0
0.222,-0.5398655155897496,-0.03548007721577803,0.7853594291759577,0.0
0.223,-0.5418487289855374,-0.035911742327619844,0.7853594291759575,0.0
0.224,-0.5437973222800956,-0.036344385157711365,0.7853594291759577,0.0
0.225,-0.5457114750167986,-0.03677796905650334,0.7853594291759576,0.0
0.226,-0.5475913443702092,-0.037212455809473036,0.785359429175957,0.0
0.227,-0.5494370652499749,-0.037647805586269636,0.7853594291759577,0.0
0.228,-0.5512487504662913,-0.038083976893794474,0.7853594291759577,0.0
0.229,-0.55302649100217,-0.03852092653660172,0.7853594291759577,0.0
0.23,-0.5547703564334663,-0.03895860958795114,0.7853594291759576,0.0
0.231,-0.5564803955319255,-0.03939697937459806,0.7853594291759575,0.0
0.232,-0.5581566370777764,-0.03983598747798284,0.7853594291759577,0.0
0.233,-0.5597990908991615,-0.040275583753928784,0.7853594291759578,0.0
0.234,-0.561407749145038,-0.04071571637228982,0.7853594291759574,0.0
0.235,-0.562982587788035,-0.041156331877274244,0.7853594291759575,0.0
0.236,-0.5645235683431502,-0.041597375268407955,0.7853594291759579,0.0
0.237,-0.5660306397791512,-0.04203879010135987,0.7853594291759577,0.0
0.238,-0.5675037405913519,-0.04248051860713774,0.7853594291759576,0.0
0.239,-0.5689428009977582,-0.042922501827548115,0.7853594291759576,0.0
0.24,-0.5703477452159493,-0.04336467976425912,0.7853594291759572,0.0
0.241,-0.5717184937751782,-0.04380699153840431,0.7853594291759577,0.0
0.242,-0.5730549658171153,-0.04424937555738276,0.7853594291759579,0.0
0.243,-0.5743570813400014,-0.04469176968536406,0.7853594291759577,0.0
0.244,-0.5756247633434526,-0.04513411141401766,0.7853594291759578,0.0
0.245,-0.5768579398357805,-0.04557633803011385,0.7853594291759577,0.0
0.246,-0.5780565456712234,-0.046018386776918774,0.7853594291759576,0.0
0.247,-0.5792205241910757,-0.0464601950066513,0.7853594291759576,0.0
0.248,-0.5803498286498883,-0.04690170032172539,0.7853594291759576,0.0
0.249,-0.5814444234153096,-0.047342840702998656,0.7853594291759575,0.0
0.25,-0.5825042849372046,-0.04778355462375461,0.7853594291759579,0.0
0.251,-0.583529402488383,-0.048223781148684114,0.7853594291759578,0.0
0.252,-0.5845197786852383,-0.04866346001759758,0.7853594291759576,0.0
0.253,-0.5854754298011193,-0.04910253171403972,0.7853594291759578,0.0
0.254,-0.5863963858892574,-0.04954093751934535,0.7853594291759575,0.0
0.255,-0.5872826907342912,-0.049978619552940334,0.7853594291759576,0.0
0.256,-0.5881344016527548,-0.050415520799902996,0.7853594291759577,0.0
0.257,-0.5889515891629804,-0.050851585126879734,0.7853594291759575,0.0
0.258,-0.5897343365444314,-0.05128675728752166,0.7853594291759572,0.0
0.259,-0.5904827393047103,-0.0517209829185421,0.7853594291759576,0.0
0.26,-0.5911969045711634,-0.05215420852745861,0.7853594291759579,0.0
0.261,-0.591876950421871,-0.05258638147298808,0.7853594291759578,0.0
0.262,-0.5925230051694954,-0.05301744993899507,0.7853594291759577,0.0
0.263,-0.5931352066094897,-0.05344736290280466,0.7853594291759572,0.0
0.264,-0.593713701244023,-0.05387607009871839,0.7853594291759576,0.0
0.265,-0.5942586434927846,-0.05430352197761468,0.7853594291759576,0.0
0.266,-0.5947701949026274,-0.054729669663645036,0.7853594291759577,0.0
0.267,-0.5952485233690752,-0.055154464909199674,0.7853594291759576,0.0
0.268,-0.5956938023848222,-0.05557786004957094,0.7853594291759577,0.0
0.269,-0.5961062103323174,-0.05599980795901405,0.7853594291759575,0.0
0.27,-0.5964859298401126,-0.05642026201023442,0.7853594291759576,0.0
0.271,-0.596833147224328,-0.056839176039604866,0.7853594291759576,0.0
0.272,-0.5971480520387975,-0.057256504320721574,0.7853594291759576,0.0
0.273,-0.5974308367577865,-0.05767220154908251,0.7853594291759575,0.0
0.274,-0.5976816966142349,-0.058086222840711355,0.7853594291759576,0.0
0.275,-0.5979008296184039,-0.05849852374786063,0.7853594291759576,0.0
0.276,-0.5980884367769805,-0.058909060294580595,0.7853594291759578,0.0
0.277,-0.5982447225235346,-0.05931778903417265,0.7853594291759577,0.0
