Time,Y-Force,Work Integrand,Mass,Mass error
0.0,4.440892098500626e-16,-2.6469779601696886e-23,0.7853981578685604,0.0
0.001,-2.3895920797656345e-9,-3.584210651883711e-17,0.7853981578685605,0.0
0.002,-1.910736857624329e-8,-1.1463276981227527e-15,0.7853981578685604,0.0
0.003,-6.444774669489561e-8,-8.699140176650702e-15,0.7853981578685602,0.0
0.004,-1.5265322872437537e-7,-3.662944736023251e-14,0.7853981578685603,0.0
0.005,-2.9789803335233955e-7,-1.116838337120136e-13,0.7853981578685605,0.0
0.006,-5.14271763840668e-7,-2.776234412885548e-13,0.7853981578685603,0.0
0.007,-8.157633213379256e-7,-5.993761873983154e-13,0.7853981578685603,0.0
0.008,-1.2162449647412643e-6,-1.1671281269662825e-12,0.7853981578685603,0.0
0.009,-1.7294565797243422e-6,-2.100344170233217e-12,0.7853981578685604,0.0
0.01,-2.3689902257650886e-6,-3.5517086013637502e-12,0.7853981578685605,0.0
0.011,-3.148274920761196e-6,-5.710976212843931e-12,0.7853981578685604,0.0
0.012,-4.08056168010873e-6,-8.808724818562172e-12,0.7853981578685602,0.0
0.013,-5.1789089106080155e-6,-1.3120000542259959e-11,0.7853981578685603,0.0
0.014,-6.456168147206398e-6,-1.896784755290085e-11,0.7853981578685603,0.0
0.015,-7.924970029105083e-6,-2.67267137579936e-11,0.7853981578685606,0.0
0.016,-9.597710779019053e-6,-3.68257252186669e-11,0.7853981578685602,0.0
0.017,-1.1486539004401664e-5,-4.9751821550543854e-11,0.7853981578685602,0.0
0.018,-1.3603342876589153e-5,-6.605274535034648e-11,0.7853981578685604,0.0
0.019,-1.5959737814430497e-5,-8.633987939204481e-11,0.7853981578685603,0.0
0.02,-1.8567054536511307e-5,-1.112909249077667e-10,0.7853981578685604,0.0
0.021,-2.143632763562664e-5,-1.4165241593225688e-10,0.7853981578685602,0.0
0.022,-2.4578284553378182e-5,-1.7824206366984642e-10,0.7853981578685603,0.0
0.023,-2.800333511698838e-5,-2.2195092670975413e-10,0.7853981578685605,0.0
0.024,-3.1721561537967347e-5,-2.737454025970572e-10,0.7853981578685604,0.0
0.025,-3.5742708962338554e-5,-3.3466903664105684e-10,0.7853981578685602,0.0
0.026,-4.0076176473835545e-5,-4.058441452776387e-10,0.7853981578685604,0.0
0.027,-4.473100873259028e-5,-4.884732501434863e-10,0.7853981578685603,0.0
0.028,-4.9715888121859564e-5,-5.838403219134711e-10,0.7853981578685605,0.0
0.029,-5.5039127422329415e-5,-6.933118304453239e-10,0.7853981578685602,0.0
0.03,-6.070866311702616e-5,-8.183376016822103e-10,0.7853981578685604,0.0
0.031,-6.673204924023679e-5,-9.604514789008593e-10,0.7853981578685604,0.0
0.032,-7.311645177265902e-5,-1.1212717893657308e-9,0.7853981578685604,0.0
0.033,-7.986864371734015e-5,-1.3025016155489657e-9,0.7853981578685605,0.0
0.034,-8.699500068320987e-5,-1.5059288732607043e-9,0.7853981578685605,0.0
0.035,-9.450149710410471e-5,-1.7334261955445868e-9,0.7853981578685603,0.0
0.036,-0.00010239370304176987,-1.986950626776886e-9,0.7853981578685603,0.0
0.037,-0.00011067678161458261,-2.268543127294535e-9,0.7853981578685604,0.0
0.038,-0.00011935548699470999,-2.5803278925297162e-9,0.7853981578685605,0.0
0.039,-0.0001284341630229946,-2.9245114897071033e-9,0.7853981578685603,0.0
0.04,-0.00013791674244378882,-3.3033818150378846e-9,0.7853981578685604,0.0
0.041,-0.00014780674671266425,-3.719306876804468e-9,0.7853981578685605,0.0
0.042,-0.00015810728639564786,-4.174733408510048e-9,0.7853981578685604,0.0
0.043,-0.00016882106216842274,-4.672185317060036e-9,0.7853981578685603,0.0
0.044,-0.00017995036642171058,-5.214261972067216e-9,0.7853981578685604,0.0
0.045,-0.00019149708543153565,-5.803636341213743e-9,0.7853981578685603,0.0
0.046,-0.00020346270208193573,-6.443052980018341e-9,0.7853981578685602,0.0
0.047,-0.00021584829917609127,-7.135325879952491e-9,0.7853981578685602,0.0
0.048,-0.00022865456332832323,-7.883336184473684e-9,0.7853981578685604,0.0
0.049,-0.00024188178933659543,-8.69002977994175e-9,0.7853981578685603,0.0
0.05,-0.00025552988517141273,-9.558414767137416e-9,0.7853981578685603,0.0
0.051,-0.00026959837745677007,-1.0491558825756562e-8,0.7853981578685603,0.0
0.052,-0.00028408641743737917,-1.1492586474089227e-8,0.7853981578685603,0.0
0.053,-0.0002989927874947895,-1.2564676239170628e-8,0.7853981578685602,0.0
0.054,-0.0003143159081515634,-1.3711057742377955e-8,0.7853981578685602,0.0
0.055,-0.0003300538455071056,-1.493500870813013e-8,0.7853981578685603,0.0
0.056,-0.00034620431916998484,-1.623985191063896e-8,0.7853981578685602,0.0
0.057,-0.00036276471067964167,-1.7628952060947875e-8,0.7853981578685602,0.0
0.058,-0.0003797320722296327,-1.9105712651551216e-8,0.7853981578685603,0.0
0.059,-0.00039710313593444013,-2.0673572758838103e-8,0.7853981578685604,0.0
0.06,-0.000414874323452441,-2.2336003825614058e-8,0.7853981578685603,0.0
0.061,-0.0004330417559192945,-2.4096506418848623e-8,0.7853981578685605,0.0
0.062,-0.0004516012643938083,-2.5958606985362984e-8,0.7853981578685603,0.0
0.063,-0.0004705484004716709,-2.7925854609848642e-8,0.7853981578685604,0.0
0.064,-0.0004898784473388318,-3.0001817782996255e-8,0.7853981578685603,0.0
0.065,-0.0005095864311202014,-3.21900811916609e-8,0.7853981578685604,0.0
0.066,-0.0005296671324406255,-3.4494242547137037e-8,0.7853981578685603,0.0
0.067,-0.0005501150983433511,-3.691790944671848e-8,0.7853981578685604,0.0
0.068,-0.0005709246544141067,-3.946469629399502e-8,0.7853981578685603,0.0
0.069,-0.0005920899170530625,-4.2138221276340725e-8,0.7853981578685602,0.0
0.07,-0.0006136048061251564,-4.494210341404086e-8,0.7853981578685602,0.0
0.071,-0.0006354630576161924,-4.7879959687860884e-8,0.7853981578685603,0.0
0.072,-0.0006576582365589445,-5.095540225907077e-8,0.7853981578685604,0.0
0.073,-0.0006801837500605146,-5.4172035779729124e-8,0.7853981578685603,0.0
0.074,-0.000703032860435826,-5.753345481491123e-8,0.7853981578685605,0.0
0.075,-0.0007261986984725688,-6.104324137639304e-8,0.7853981578685603,0.0
0.076,-0.0007496742767596487,-6.470496257679004e-8,0.7853981578685604,0.0
0.077,-0.0007734525030671513,-6.852216841651089e-8,0.7853981578685604,0.0
0.078,-0.0007975261937458455,-7.249838970314632e-8,0.7853981578685603,0.0
0.079,-0.000821888087168432,-7.66371361198546e-8,0.7853981578685603,0.0
0.08,-0.0008465308571588004,-8.094189443875891e-8,0.7853981578685604,0.0
0.081,-0.0008714471263795431,-8.541612689307206e-8,0.7853981578685604,0.0
0.082,-0.0008966294796466379,-9.006326971456192e-8,0.7853981578685605,0.0
0.083,-0.0009220704772374688,-9.48867318312078e-8,0.7853981578685602,0.0
0.084,-0.0009477626680700624,-9.98898937445091e-8,0.7853981578685604,0.0
0.085,-0.0009736986027744088,-1.0507610658492834e-7,0.7853981578685604,0.0
0.086,-0.0009998708466385509,-1.1044869133815033e-7,0.7853981578685602,0.0
0.087,-0.0010262719924138963,-1.1601093826861184e-7,0.7853981578685604,0.0
0.088,-0.0010528946729260191,-1.217661065284841e-7,0.7853981578685605,0.0
0.089,-0.001079731573572218,-1.2771742394766285e-7,0.7853981578685603,0.0
0.09,-0.001106775444521979,-1.3386808703523198e-7,0.7853981578685602,0.0
0.091,-0.0011340191127975352,-1.402212611581401e-7,0.7853981578685602,0.0
0.092,-0.001161455493994712,-1.467800809259838e-7,0.7853981578685603,0.0
0.093,-0.0011890776039020778,-1.5354765077165225e-7,0.7853981578685603,0.0
0.094,-0.0012168785697315165,-1.605270457300011e-7,0.7853981578685603,0.0
0.095,-0.0012448516411192045,-1.677213124089724e-7,0.7853981578685603,0.0
0.096,-0.0012729902008081773,-1.7513347016676712e-7,0.7853981578685602,0.0
0.097,-0.0013012877750644414,-1.827665124700252e-7,0.7853981578685604,0.0
0.098,-0.0013297380436929629,-1.90623408467816e-7,0.7853981578685604,0.0
0.099,-0.0013583348497911985,-1.9870710473199977e-7,0.7853981578685602,0.0
0.1,-0.001387072209101614,-2.0702052720862878e-7,0.7853981578685602,0.0
0.101,-0.0014159443190271404,-2.155665833394058e-7,0.7853981578685605,0.0
0.102,-0.0014449455672842504,-2.2434816438312351e-7,0.7853981578685605,0.0
0.103,-0.0014740705401323773,-2.3336814789436762e-7,0.7853981578685604,0.0
0.104,-0.0015033140302658232,-2.42629400395533e-7,0.7853981578685604,0.0
0.105,-0.001532671044291778,-2.521347802115245e-7,0.7853981578685602,0.0
0.106,-0.0015621368097562538,-2.6188714046578715e-7,0.7853981578685606,0.0
0.107,-0.0015917067818156383,-2.718893322370148e-7,0.78539815786856,0.0
0.108,-0.0016213766494805881,-2.821442078764294e-7,0.7853981578685603,0.0
0.109,-0.0016511423413749782,-2.9265462445820026e-7,0.7853981578685604,0.0
0.11,-0.0016810000311711093,-3.034234473766641e-7,0.7853981578685604,0.0
0.111,-0.0017109461424458239,-3.144535540789079e-7,0.78539815786856,0.0
0.112,-0.0017409773532501838,-3.25747837914012e-7,0.7853981578685603,0.0
0.113,-0.0017710906001275895,-3.373092121110961e-7,0.7853981578685602,0.0
0.114,-0.001801283081752203,-3.491406138499565e-7,0.7853981578685604,0.0
0.115,-0.001831552262070879,-3.6124500845421785e-7,0.7853981578685605,0.0
0.116,-0.0018618958730689528,-3.7362539365419934e-7,0.7853981578685604,0.0
0.117,-0.0018923119170062286,-3.862848039544063e-7,0.7853981578685602,0.0
0.118,-0.001922798668306136,-3.992263150556655e-7,0.7853981578685603,0.0
0.119,-0.001953354674907537,-4.124530483624791e-7,0.7853981578685604,0.0
0.12,-0.0019839787592630387,-4.2596817552886714e-7,0.7853981578685605,0.0
0.121,-0.002014670018827047,-4.3977492305820407e-7,0.7853981578685604,0.0
0.122,-0.002045427826146806,-4.5387657694566375e-7,0.7853981578685603,0.0
0.123,-0.0020762518285795117,-4.6827648733530156e-7,0.7853981578685604,0.0
0.124,-0.0021071419474516517,-4.829780732038078e-7,0.7853981578685604,0.0
0.125,-0.0021380983769390127,-4.979848270501158e-7,0.7853981578685603,0.0
0.126,-0.0021691215824377608,-5.13300319576011e-7,0.7853981578685603,0.0
0.127,-0.0022002122986091166,-5.289282043606687e-7,0.7853981578685604,0.0
0.128,-0.0022313715269488554,-5.448722225178445e-7,0.7853981578685605,0.0
0.129,-0.002262600533034842,-5.611362072972283e-7,0.7853981578685605,0.0
0.13,-0.0022939008433753294,-5.777240886801604e-7,0.7853981578685603,0.0
0.131,-0.0023252742418202743,-5.946398978856843e-7,0.7853981578685603,0.0
0.132,-0.0023567227657315115,-6.118877718432059e-7,0.7853981578685604,0.0
0.133,-0.0023882487017248266,-6.294719575758142e-7,0.7853981578685603,0.0
0.134,-0.0024198545810367733,-6.473968165180083e-7,0.7853981578685603,0.0
0.135,-0.0024515431746716665,-6.656668287218599e-7,0.7853981578685602,0.0
0.136,-0.0024833174881262465,-6.842865969985566e-7,0.7853981578685605,0.0
0.137,-0.002515180755847002,-7.032608509106517e-7,0.7853981578685604,0.0
0.138,-0.0025471364353926162,-7.225944506755169e-7,0.7853981578685605,0.0
0.139,-0.002579188201331295,-7.422923909407514e-7,0.7853981578685604,0.0
0.14,-0.00261133993882412,-7.623598044191864e-7,0.7853981578685603,0.0
0.141,-0.00264359573695927,-7.828019653840276e-7,0.7853981578685603,0.0
0.142,-0.0026759598819086072,-8.036242930186061e-7,0.7853981578685604,0.0
0.143,-0.0027084368497516387,-8.248323546133658e-7,0.7853981578685603,0.0
0.144,-0.002741031299149821,-8.464318685856911e-7,0.7853981578685604,0.0
0.145,-0.0027737480637965994,-8.684287073516339e-7,0.7853981578685603,0.0
0.146,-0.002806592144692477,-8.908289000072534e-7,0.7853981578685602,0.0
0.147,-0.002839568702205142,-9.136386348189201e-7,0.7853981578685604,0.0
0.148,-0.002872683048023905,-9.36864261567253e-7,0.7853981578685603,0.0
0.149,-0.002905940636925841,-9.60512293638003e-7,0.7853981578685603,0.0
0.15,-0.002939347058415809,-9.845894099734e-7,0.7853981578685603,0.0
0.151,-0.002972908028286536,-1.0091024567919146e-6,0.7853981578685604,0.0
0.152,-0.0030066293799881905,-1.034058449096275e-6,0.7853981578685603,0.0
0.153,-0.003040517056033032,-1.0594645720018309e-6,0.7853981578685604,0.0
0.154,-0.0030745770991895682,-1.0853281818250932e-6,0.7853981578685603,0.0
0.155,-0.0031088156437442116,-1.1116568069727793e-6,0.7853981578685603,0.0
0.156,-0.0031432389066012867,-1.1384581486088147e-6,0.7853981578685603,0.0
0.157,-0.0031778531784509845,-1.1657400811064447e-6,0.7853981578685603,0.0
0.158,-0.0032126648148396164,-1.1935106522752668e-6,0.7853981578685603,0.0
0.159,-0.003247680227267402,-1.2217780833768434e-6,0.7853981578685603,0.0
0.16,-0.0032829058743435446,-1.2505507689024396e-6,0.7853981578685602,0.0
0.161,-0.0033183482528560404,-1.279837276147366e-6,0.7853981578685604,0.0
0.162,-0.0033540138889556204,-1.3096463445554703e-6,0.7853981578685602,0.0
0.163,-0.0033899093294129656,-1.339986884850257e-6,0.7853981578685605,0.0
0.164,-0.003426041132809754,-1.3708679779385422e-6,0.7853981578685604,0.0
0.165,-0.00346241586098861,-1.4022988735937995e-6,0.7853981578685605,0.0
0.166,-0.0034990400703933666,-1.4342889889462987e-6,0.7853981578685602,0.0
0.167,-0.0035359203036700038,-1.4668479067479496e-6,0.7853981578685604,0.0
0.168,-0.003573063081291128,-1.499985373413365e-6,0.7853981578685604,0.0
0.169,-0.0036104748932834774,-1.5337112968737913e-6,0.7853981578685604,0.0
0.17,-0.0036481621911734763,-1.5680357442402187e-6,0.7853981578685603,0.0
0.171,-0.003686131380002955,-1.6029689392327382e-6,0.7853981578685603,0.0
0.172,-0.003724388810491419,-1.6385212594496532e-6,0.7853981578685603,0.0
0.173,-0.0037629407714563357,-1.6747032334316764e-6,0.7853981578685604,0.0
0.174,-0.003801793482235194,-1.7115255375415965e-6,0.7853981578685604,0.0
0.175,-0.0038409530854628393,-1.7489989926774106e-6,0.7853981578685604,0.0
0.176,-0.0038804256399371795,-1.7871345608085152e-6,0.7853981578685605,0.0
0.177,-0.003920217113694058,-1.8259433413436287e-6,0.7853981578685603,0.0
0.178,-0.003960333377314829,-1.8654365673369516e-6,0.7853981578685603,0.0
0.179,-0.004000780197396914,-1.905625601551211e-6,0.7853981578685603,0.0
0.18,-0.004041563230320122,-1.946521932364581e-6,0.7853981578685603,0.0
0.181,-0.004082688016147085,-1.9881371695639784e-6,0.7853981578685603,0.0
0.182,-0.004124159972811459,-2.0304830399642346e-6,0.7853981578685604,0.0
0.183,-0.004165984390537059,-2.0735713829346785e-6,0.7853981578685603,0.0
0.184,-0.004208166426468818,-2.1174141458290066e-6,0.7853981578685603,0.0
0.185,-0.004250711099572868,-2.1620233792440675e-6,0.7853981578685605,0.0
0.186,-0.004293623285795967,-2.2074112322595634e-6,0.7853981578685605,0.0
0.187,-0.004336907713445193,-2.2535899475253137e-6,0.7853981578685604,0.0
0.188,-0.004380568958838982,-2.300571856286935e-6,0.7853981578685604,0.0
0.189,-0.004424611442227722,-2.3483693733698883e-6,0.7853981578685603,0.0
0.19,-0.004469039423955046,-2.3969949920162915e-6,0.7853981578685604,0.0
0.191,-0.0045138570009108925,-2.4464612787846157e-6,0.7853981578685604,0.0
0.192,-0.004559068103203057,-2.4967808682826304e-6,0.7853981578685604,0.0
0.193,-0.0046046764911213955,-2.5479664579502233e-6,0.7853981578685605,0.0
0.194,-0.004650685752409345,-2.6000308027596033e-6,0.7853981578685604,0.0
0.195,-0.004697099299692198,-2.6529867099348015e-6,0.7853981578685603,0.0
0.196,-0.004743920368265986,-2.706847033615012e-6,0.7853981578685603,0.0
0.197,-0.004791152014134603,-2.761624669562167e-6,0.7853981578685604,0.0
0.198,-0.004838797112255655,-2.8173325498372873e-6,0.7853981578685605,0.0
0.199,-0.004886858355116264,-2.8739836375139133e-6,0.7853981578685602,0.0
0.2,-0.004935338251531807,-2.931590921408881e-6,0.7853981578685605,0.0
0.201,-0.004984239125683576,-2.990167410832833e-6,0.7853981578685603,0.0
0.202,-0.0050335631164801775,-3.049726130399926e-6,0.7853981578685604,0.0
0.203,-0.005083312177075694,-3.1102801148746168e-6,0.7853981578685604,0.0
0.204,-0.005133488074695602,-3.1718424040720096e-6,0.7853981578685604,0.0
0.205,-0.005184092390729589,-3.2344260378380004e-6,0.7853981578685604,0.0
0.206,-0.0052351265209740205,-3.298044051071921e-6,0.7853981578685603,0.0
0.207,-0.005286591676218588,-3.3627094688773364e-6,0.7853981578685604,0.0
0.208,-0.005338488882964398,-3.428435301735394e-6,0.7853981578685605,0.0
0.209,-0.005390818984458701,-3.4952345408314784e-6,0.7853981578685605,0.0
0.21,-0.005443582641854849,-3.5631201534551578e-6,0.7853981578685604,0.0
0.211,-0.005496780335692009,-3.6321050784823145e-6,0.7853981578685605,0.0
0.212,-0.005550412367494317,-3.7022022220493944e-6,0.7853981578685603,0.0
0.213,-0.005604478861608531,-3.7734244532541122e-6,0.7853981578685604,0.0
0.214,-0.0056589797672788045,-3.845784600029194e-6,0.7853981578685603,0.0
0.215,-0.005713914860844049,-3.919295445185475e-6,0.7853981578685602,0.0
0.216,-0.005769283748152443,-3.993969722494457e-6,0.7853981578685604,0.0
0.217,-0.005825085867175339,-4.069820113008094e-6,0.7853981578685603,0.0
0.218,-0.005881320490741526,-4.146859241469219e-6,0.7853981578685604,0.0
0.219,-0.005937986729500189,-4.225099672884591e-6,0.7853981578685604,0.0
0.22,-0.005995083534972245,-4.3045539092805354e-6,0.7853981578685602,0.0
0.221,-0.006052609702826395,-4.385234386573497e-6,0.7853981578685602,0.0
0.222,-0.006110563876220443,-4.467153471631423e-6,0.7853981578685603,0.0
0.223,-0.006168944549343358,-4.550323459492998e-6,0.7853981578685603,0.0
0.224,-0.006227750071064797,-4.634756570776836e-6,0.7853981578685604,0.0
0.225,-0.0062869786486663415,-4.720464949202995e-6,0.7853981578685604,0.0
0.226,-0.006346628351766803,-4.80746065937036e-6,0.7853981578685604,0.0
0.227,-0.006406697116281279,-4.895755684625972e-6,0.7853981578685604,0.0
0.228,-0.00646718274851299,-4.985361925195428e-6,0.7853981578685604,0.0
0.229,-0.006528082929329493,-5.0762911963883085e-6,0.7853981578685604,0.0
0.23,-0.0065893952184441495,-5.168555227111956e-6,0.7853981578685605,0.0
0.231,-0.006651117058714018,-5.262165658460275e-6,0.7853981578685604,0.0
0.232,-0.006713245780581634,-5.357134042495524e-6,0.7853981578685604,0.0
0.233,-0.006775778606536775,-5.453471841283374e-6,0.7853981578685604,0.0
0.234,-0.006838712655635071,-5.551190426021212e-6,0.7853981578685602,0.0
0.235,-0.006902044948066344,-5.650301076418843e-6,0.7853981578685603,0.0
0.236,-0.006965772409766036,-5.750814980169834e-6,0.7853981578685603,0.0
0.237,-0.0070298918770825836,-5.8527432327194935e-6,0.7853981578685603,0.0
0.238,-0.007094400101428366,-5.9560968370944364e-6,0.7853981578685605,0.0
0.239,-0.0071592937539670665,-6.060886703984983e-6,0.7853981578685603,0.0
0.24,-0.007224569430341887,-6.167123651961565e-6,0.7853981578685603,0.0
0.241,-0.0072902236553646915,-6.274818407871977e-6,0.7853981578685603,0.0
0.242,-0.007356252887738002,-6.3839816074298845e-6,0.7853981578685603,0.0
0.243,-0.007422653524771672,-6.49462379592302e-6,0.7853981578685603,0.0
0.244,-0.007489421907061811,-6.6067554291338905e-6,0.7853981578685604,0.0
0.245,-0.007556554323169706,-6.720386874386683e-6,0.7853981578685602,0.0
0.246,-0.007624047014284763,-6.835528411778917e-6,0.7853981578685603,0.0
0.247,-0.007691896178848356,-6.952190235519351e-6,0.7853981578685604,0.0
0.248,-0.0077600979771279555,-7.070382455510917e-6,0.7853981578685604,0.0
0.249,-0.007828648535789906,-7.190115098945366e-6,0.7853981578685603,0.0
0.25,-0.007897543952397168,-7.31139811217937e-6,0.7853981578685603,0.0
0.251,-0.007966780299837328,-7.434241362642719e-6,0.7853981578685603,0.0
0.252,-0.0080363536307968,-7.5586546409650915e-6,0.7853981578685605,0.0
0.253,-0.008106259982036512,-7.684647663167444e-6,0.7853981578685603,0.0
0.254,-0.008176495378712456,-7.812230072988275e-6,0.7853981578685603,0.0
0.255,-0.008247055838566553,-7.941411444406347e-6,0.7853981578685604,0.0
0.256,-0.008317937376091766,-8.072201284169914e-6,0.7853981578685603,0.0
0.257,-0.008389136006636821,-8.204609034525006e-6,0.7853981578685603,0.0
0.258,-0.008460647750302197,-8.338644076015273e-6,0.7853981578685603,0.0
0.259,-0.008532468635972013,-8.47431573037594e-6,0.7853981578685603,0.0
0.26,-0.008604594705083901,-8.611633263556125e-6,0.7853981578685604,0.0
0.261,-0.008677022015382896,-8.750605888829636e-6,0.7853981578685603,0.0
0.262,-0.008749746644589607,-8.891242769961272e-6,0.7853981578685603,0.0
0.263,-0.00882276469395915,-9.033553024501064e-6,0.7853981578685603,0.0
0.264,-0.008896072291770807,-9.17754572712405e-6,0.7853981578685603,0.0
0.265,-0.008969665596693321,-9.323229913074573e-6,0.7853981578685604,0.0
0.266,-0.009043540801100036,-9.470614581639624e-6,0.7853981578685603,0.0
0.267,-0.009117694134210375,-9.619708699755338e-6,0.7853981578685604,0.0
0.268,-0.009192121865213565,-9.770521205574884e-6,0.7853981578685604,0.0
0.269,-0.009266820306245815,-9.92306101219552e-6,0.7853981578685604,0.0
