Time,Y-Force,Work Integrand,Mass,Mass error
0.0,6.661338147750939e-16,6.617444900424222e-24,0.7803612880645128,0.0
0.001,-1.5002672437702813e-9,-2.2502892699133482e-17,0.7803612880645128,0.0
0.002,-1.1987578485417316e-8,-7.191829721009285e-16,0.7803612880645125,0.0
0.003,-4.040695333884514e-8,-5.454119898028035e-15,0.7803612880645127,0.0
0.004,-9.565363168206886e-8,-2.2952278670700522e-14,0.7803612880645123,0.0
0.005,-1.865689465141429e-7,-6.99458633077711e-14,0.780361288064513,0.0
0.006,-3.2193619037279575e-7,-1.7379339055474463e-13,0.7803612880645129,0.0
0.007,-5.104766294117269e-7,-3.750690047934791e-13,0.780361288064513,0.0
0.008,-7.608455354635169e-7,-7.301195501253888e-13,0.7803612880645129,0.0
0.009,-1.0816283904091506e-6,-1.3135871132624317e-12,0.7803612880645131,0.0
0.01,-1.481337121411741e-6,-2.2208946910504964e-12,0.7803612880645129,0.0
0.011,-1.9684064618274988e-6,-3.5706927713398005e-12,0.780361288064513,0.0
0.012,-2.551190359412203e-6,-5.507264850015644e-12,0.7803612880645129,0.0
0.013,-3.237958551283171e-6,-8.20288958142457e-12,0.7803612880645132,0.0
0.014,-4.036893162417954e-6,-1.1860157982903003e-11,0.7803612880645129,0.0
0.015,-4.9560854449293146e-6,-1.6714243273223482e-11,0.780361288064514,0.0
0.016,-6.0035325886165225e-6,-2.3035122290190695e-11,0.7803612880645129,0.0
0.017,-7.1871346829510685e-6,-3.1129746062967284e-11,0.7803612880645134,0.0
0.018,-8.514691692385057e-6,-4.134415836725932e-11,0.7803612880645132,0.0
0.019,-9.993900596416694e-6,-5.406556060021225e-11,0.7803612880645134,0.0
0.02,-1.1632352617807484e-5,-6.972432159901235e-11,0.7803612880645131,0.0
0.021,-1.3437530548054966e-5,-8.879593082178306e-11,0.7803612880645139,0.0
0.022,-1.5416806170787112e-5,-1.118028942114559e-10,0.7803612880645132,0.0
0.023,-1.7577437786853167e-5,-1.3931657034635966e-10,0.7803612880645137,0.0
0.024,-1.9926567841999088e-5,-1.719589475305904e-10,0.7803612880645137,0.0
0.025,-2.2471220667119596e-5,-2.1040435910349214e-10,0.7803612880645132,0.0
0.026,-2.5218300303775365e-5,-2.553811374679982e-10,0.7803612880645124,0.0
0.027,-2.8174588482698937e-5,-3.0767320477954245e-10,0.7803612880645131,0.0
0.028,-3.134674261273673e-5,-3.681216004378427e-10,0.7803612880645137,0.0
0.029,-3.4741293960971475e-5,-4.3762594424483735e-10,0.7803612880645135,0.0
0.03,-3.836464587902988e-5,-5.171458352762098e-10,0.7803612880645133,0.0
0.031,-4.2223072188152244e-5,-6.077021850485671e-10,0.7803612880645135,0.0
0.032,-4.6322715623769994e-5,-7.103784848941808e-10,0.7803612880645132,0.0
0.033,-5.066958633404006e-5,-8.26322008187037e-10,0.7803612880645133,0.0
0.034,-5.526956063928168e-5,-9.567449451298158e-10,0.7803612880645133,0.0
0.035,-6.0128379693935585e-5,-1.1029254736237657e-9,0.7803612880645139,0.0
0.036,-6.525164844406461e-5,-1.2662087599602033e-9,0.7803612880645131,0.0
0.037,-7.064483448759873e-5,-1.4480078965198675e-9,0.7803612880645135,0.0
0.038,-7.631326720058951e-5,-1.6498047713674364e-9,0.7803612880645137,0.0
0.039,-8.22621368932186e-5,-1.8731508725906257e-9,0.7803612880645131,0.0
0.04,-8.849649404285564e-5,-2.119668025303556e-9,0.7803612880645133,0.0
0.041,-9.502124865301553e-5,-2.3910490653462663e-9,0.7803612880645131,0.0
0.042,-0.0001018411697149002,-2.6890584443135714e-9,0.7803612880645132,0.0
0.043,-0.00010896088475842447,-3.0155327738652106e-9,0.7803612880645131,0.0
0.044,-0.00011638487948628651,-3.3723813030390776e-9,0.7803612880645137,0.0
0.045,-0.00012411749749063894,-3.761586330871462e-9,0.7803612880645131,0.0
0.046,-0.00013216294010276464,-4.185203559630118e-9,0.7803612880645128,0.0
0.047,-0.00014052526632957196,-4.645362383415329e-9,0.7803612880645133,0.0
0.048,-0.00014920839279963793,-5.144266114188957e-9,0.7803612880645133,0.0
0.049,-0.00015821609393995573,-5.684192149276899e-9,0.7803612880645131,0.0
0.05,-0.00016755200208717902,-6.267492078129125e-9,0.7803612880645127,0.0
0.051,-0.00017721960779981671,-6.896591729468914e-9,0.7803612880645134,0.0
0.052,-0.00018722226020595478,-7.573991163283315e-9,0.7803612880645131,0.0
0.053,-0.00019756316745223046,-8.302264602213475e-9,0.7803612880645131,0.0
0.054,-0.00020824539720498692,-9.084060308890717e-9,0.7803612880645132,0.0
0.055,-0.0002192718772409119,-9.922100410749801e-9,0.7803612880645133,0.0
0.056,-0.000230645396170015,-1.081918066960885e-8,0.7803612880645137,0.0
0.057,-0.0002423686041603812,-1.1778170196666488e-8,0.780361288064513,0.0
0.058,-0.00025444401376484294,-1.2802011124693306e-8,0.7803612880645133,0.0
0.059,-0.00026687400088465374,-1.389371821961644e-8,0.7803612880645135,0.0
0.06,-0.0002796608056601091,-1.5056378454658507e-8,0.7803612880645133,0.0
0.061,-0.0002928065335963126,-1.6293150533071808e-8,0.7803612880645131,0.0
0.062,-0.0003063131566745092,-1.7607264361920805e-8,0.7803612880645137,0.0
0.063,-0.00032018251445320445,-1.900202049054671e-8,0.7803612880645133,0.0
0.064,-0.0003344163154714863,-2.0480789499470486e-8,0.7803612880645137,0.0
0.065,-0.00034901613843185686,-2.204701135550939e-8,0.7803612880645132,0.0
0.066,-0.00036398343364796304,-2.3704194718172185e-8,0.7803612880645129,0.0
0.067,-0.0003793195244559122,-2.545591622056206e-8,0.7803612880645138,0.0
0.068,-0.00039502560873350134,-2.7305819702466206e-8,0.7803612880645133,0.0
0.069,-0.0004111027604416506,-2.9257615419606533e-8,0.7803612880645134,0.0
0.07,-0.00042755193124621726,-3.131507921165001e-8,0.780361288064513,0.0
0.071,-0.0004443739521420298,-3.348205164643435e-8,0.7803612880645135,0.0
0.072,-0.00046156953521836463,-3.576243712863185e-8,0.7803612880645129,0.0
0.073,-0.00047913927538534296,-3.8160202984289723e-8,0.7803612880645134,0.0
0.074,-0.0004970836521862587,-4.067937852208722e-8,0.7803612880645137,0.0
0.075,-0.0005154030317084946,-4.3324054059586527e-8,0.780361288064513,0.0
0.076,-0.0005340976683749776,-4.609837994419823e-8,0.7803612880645139,0.0
0.077,-0.0005531677069614549,-4.9006565534681786e-8,0.7803612880645135,0.0
0.078,-0.0005726131845860127,-5.205287817603235e-8,0.7803612880645139,0.0
0.079,-0.0005924340326626254,-5.524164215584134e-8,0.7803612880645129,0.0
0.08,-0.0006126300790325612,-5.857723763633019e-8,0.7803612880645132,0.0
0.081,-0.0006332010499603413,-6.206409958319924e-8,0.7803612880645128,0.0
0.082,-0.0006541465723559625,-6.570671667258934e-8,0.780361288064514,0.0
0.083,-0.0006754661758425762,-6.950963019622738e-8,0.7803612880645137,0.0
0.084,-0.0006971592949682748,-7.347743295245011e-8,0.7803612880645133,0.0
0.085,-0.0007192252714185443,-7.761476812493577e-8,0.7803612880645134,0.0
0.086,-0.0007416633562338237,-8.192632816955378e-8,0.7803612880645138,0.0
0.087,-0.0007644727120570405,-8.641685368256601e-8,0.7803612880645133,0.0
0.088,-0.0007876524154091236,-9.109113227427634e-8,0.7803612880645131,0.0
0.089,-0.0008112014590044847,-9.595399744029482e-8,0.7803612880645128,0.0
0.09,-0.0008351187540207583,-1.0101032743602741e-7,0.7803612880645135,0.0
0.091,-0.0008594031324573592,-1.0626504413899555e-7,0.7803612880645132,0.0
0.092,-0.0008840533494509639,-1.1172311194633804e-7,0.7803612880645132,0.0
0.093,-0.0009090680856509437,-1.1738953663320041e-7,0.7803612880645137,0.0
0.094,-0.0009344459495497226,-1.2326936426107883e-7,0.7803612880645133,0.0
0.095,-0.0009601854798726439,-1.293676800665671e-7,0.7803612880645135,0.0
0.096,-0.0009862851479456314,-1.3568960736942953e-7,0.7803612880645137,0.0
0.097,-0.0010127433601041513,-1.4224030648726034e-7,0.7803612880645133,0.0
0.098,-0.0010395584600260133,-1.4902497367174587e-7,0.7803612880645133,0.0
0.099,-0.0010667287311629803,-1.5604884004647161e-7,0.7803612880645137,0.0
0.1,-0.0010942523990919995,-1.6331717056345904e-7,0.7803612880645129,0.0
0.101,-0.001122127633930603,-1.7083526298816254e-7,0.7803612880645132,0.0
0.102,-0.001150352552714562,-1.786084468789913e-7,0.7803612880645143,0.0
0.103,-0.0011789252217633273,-1.8664208259884215e-7,0.780361288064513,0.0
0.104,-0.0012078436590221564,-1.9494156035308697e-7,0.7803612880645137,0.0
0.105,-0.0012371058365228116,-2.0351229923173432e-7,0.7803612880645135,0.0
0.106,-0.0012667096826328716,-2.1235974628582466e-7,0.780361288064514,0.0
0.107,-0.0012966530844313873,-2.2148937561675477e-7,0.7803612880645135,0.0
0.108,-0.0013269338900923078,-2.309066875028716e-7,0.7803612880645127,0.0
0.109,-0.0013575499111395661,-2.4061720753574254e-7,0.7803612880645137,0.0
0.11,-0.0013884989247847646,-2.506264857952945e-7,0.7803612880645127,0.0
0.111,-0.001419778676189365,-2.609400960414869e-7,0.7803612880645133,0.0
0.112,-0.0014513868807943808,-2.715636349401914e-7,0.7803612880645124,0.0
0.113,-0.0014833212264953044,-2.8250272130674395e-7,0.780361288064513,0.0
0.114,-0.001515579375935605,-2.9376299539660557e-7,0.7803612880645142,0.0
0.115,-0.0015481589686852093,-3.053501182105514e-7,0.7803612880645134,0.0
0.116,-0.0015810576234716045,-3.172697708312745e-7,0.7803612880645134,0.0
0.117,-0.001614272940299477,-3.2952765380094527e-7,0.7803612880645131,0.0
0.118,-0.001647802502613871,-3.421294865164166e-7,0.7803612880645134,0.0
0.119,-0.0016816438794500232,-3.550810066631346e-7,0.7803612880645132,0.0
0.12,-0.0017157946274486413,-3.6838796969054744e-7,0.7803612880645138,0.0
0.121,-0.0017502522930248343,-3.820561483048614e-7,0.7803612880645131,0.0
0.122,-0.0017850144143070068,-3.960913319971419e-7,0.7803612880645138,0.0
0.123,-0.0018200785232267425,-4.104993266224261e-7,0.7803612880645129,0.0
0.124,-0.0018554421474130667,-4.2528595398349774e-7,0.780361288064514,0.0
0.125,-0.0018911028122345908,-4.4045705148074415e-7,0.7803612880645134,0.0
0.126,-0.0019270580426047346,-4.5601847177361397e-7,0.7803612880645134,0.0
0.127,-0.0019633053650016663,-4.7197608248029325e-7,0.7803612880645132,0.0
0.128,-0.0019998423091709405,-4.883357659281762e-7,0.780361288064513,0.0
0.129,-0.0020366664100590626,-5.051034189146363e-7,0.7803612880645132,0.0
0.13,-0.0020737752095352224,-5.222849525179409e-7,0.7803612880645129,0.0
0.131,-0.0021111662581514423,-5.398862919459512e-7,0.7803612880645137,0.0
0.132,-0.0021488371168587594,-5.579133764076444e-7,0.7803612880645135,0.0
0.133,-0.002186785358665677,-5.763721590314186e-7,0.7803612880645138,0.0
0.134,-0.002225008570307052,-5.952686068118589e-7,0.7803612880645134,0.0
0.135,-0.0022635043538312694,-6.146087005839333e-7,0.7803612880645133,0.0
0.136,-0.0023022703281105894,-6.343984350473328e-7,0.7803612880645134,0.0
0.137,-0.0023413041304780613,-6.546438188243138e-7,0.7803612880645137,0.0
0.138,-0.0023806034181155233,-6.753508745287618e-7,0.780361288064514,0.0
0.139,-0.002420165869540858,-6.965256388964582e-7,0.7803612880645128,0.0
0.14,-0.0024599891859875544,-7.181741629361097e-7,0.7803612880645137,0.0
0.141,-0.0025000710928377856,-7.403025121103558e-7,0.7803612880645135,0.0
0.142,-0.0025404093408898376,-7.629167665617166e-7,0.7803612880645132,0.0
0.143,-0.002581001707649744,-7.860230213499789e-7,0.7803612880645139,0.0
0.144,-0.002621845998607597,-8.096273867539295e-7,0.7803612880645141,0.0
0.145,-0.0026629400484297072,-8.337359885680472e-7,0.7803612880645139,0.0
0.146,-0.0027042817221210047,-8.583549684577419e-7,0.7803612880645128,0.0
0.147,-0.002745868916192773,-8.834904843241882e-7,0.7803612880645133,0.0
0.148,-0.002787699559670953,-9.09148710724725e-7,0.7803612880645131,0.0
0.149,-0.0028297716151939323,-9.353358392946102e-7,0.7803612880645139,0.0
0.15,-0.0028720830800308406,-9.620580792140407e-7,0.7803612880645135,0.0
0.151,-0.002914631986993488,-9.893216576934956e-7,0.780361288064513,0.0
0.152,-0.002957416405397595,-1.0171328205109582e-6,0.7803612880645131,0.0
0.153,-0.003000434441935651,-1.0454978325283217e-6,0.7803612880645133,0.0
0.154,-0.003043684241514022,-1.0744229782856402e-6,0.7803612880645133,0.0
0.155,-0.003087163988024555,-1.103914562586056e-6,0.7803612880645133,0.0
0.156,-0.003130871905197008,-1.133978911122685e-6,0.7803612880645139,0.0
0.157,-0.00317480625718769,-1.1646223711194348e-6,0.7803612880645131,0.0
0.158,-0.003218965349379932,-1.1958513119868924e-6,0.7803612880645135,0.0
0.159,-0.0032633475289325364,-1.2276721260368138e-6,0.7803612880645134,0.0
0.16,-0.003307951185456348,-1.260091229173194e-6,0.780361288064514,0.0
0.161,-0.0033527747515154083,-1.2931150616329401e-6,0.7803612880645137,0.0
0.162,-0.0033978167031694095,-1.3267500887312604e-6,0.7803612880645134,0.0
0.163,-0.003443075560484843,-1.3610028016283575e-6,0.7803612880645135,0.0
0.164,-0.003488549887927128,-1.3958797181378097e-6,0.7803612880645134,0.0
0.165,-0.003534238294822245,-1.4313873834986314e-6,0.7803612880645135,0.0
0.166,-0.003580139435691798,-1.4675323712231734e-6,0.780361288064513,0.0
0.167,-0.003626252010591191,-1.5043212839259412e-6,0.7803612880645132,0.0
0.168,-0.0036725747654053897,-1.5417607541604907e-6,0.7803612880645132,0.0
0.169,-0.003719106492135804,-1.5798574453138947e-6,0.7803612880645132,0.0
0.17,-0.003765846029074593,-1.6186180524496024e-6,0.7803612880645137,0.0
0.171,-0.003812792261034037,-1.6580493032209874e-6,0.7803612880645133,0.0
0.172,-0.0038599441194655526,-1.6981579587551894e-6,0.7803612880645137,0.0
0.173,-0.00390730058262756,-1.7389508145723015e-6,0.7803612880645129,0.0
0.174,-0.0039548606756083515,-1.7804347015058569e-6,0.7803612880645133,0.0
0.175,-0.004002623470440669,-1.822616486615294e-6,0.7803612880645139,0.0
0.176,-0.004050588086061291,-1.8655030741219483e-6,0.7803612880645133,0.0
0.177,-0.004098753688322798,-1.909101406365318e-6,0.7803612880645139,0.0
0.178,-0.004147119489976925,-1.9534184647297323e-6,0.7803612880645137,0.0
0.179,-0.004195684750552209,-1.99846127059975e-6,0.7803612880645133,0.0
0.18,-0.0042444487762622884,-2.044236886315125e-6,0.7803612880645137,0.0
0.181,-0.004293410919883556,-2.090752416122844e-6,0.7803612880645135,0.0
0.182,-0.00434257058056442,-2.1380150071302487e-6,0.7803612880645135,0.0
0.183,-0.004391927203651891,-2.186031850266181e-6,0.7803612880645135,0.0
0.184,-0.004441480280455767,-2.234810181243538e-6,0.7803612880645132,0.0
0.185,-0.004491229348004833,-2.2843572815149952e-6,0.7803612880645131,0.0
0.186,-0.004541173988740876,-2.334680479201194e-6,0.7803612880645133,0.0
0.187,-0.0045913138302866585,-2.385787150093301e-6,0.7803612880645141,0.0
0.188,-0.004641648545038013,-2.4376847185474766e-6,0.7803612880645137,0.0
0.189,-0.004692177849836554,-2.4903806584641256e-6,0.7803612880645139,0.0
0.19,-0.004742901505605968,-2.5438824942196608e-6,0.7803612880645129,0.0
0.191,-0.004793819316970094,-2.598197801587207e-6,0.7803612880645133,0.0
0.192,-0.004844931131747554,-2.6533342086759552e-6,0.7803612880645137,0.0
0.193,-0.004896236840612911,-2.709299396838529e-6,0.7803612880645133,0.0
0.194,-0.004947736376519796,-2.766101101586921e-6,0.7803612880645139,0.0
0.195,-0.004999429714306558,-2.8237471134958487e-6,0.7803612880645135,0.0
0.196,-0.005051316870139155,-2.8822452790850783e-6,0.7803612880645135,0.0
0.197,-0.005103397900999118,-2.9416035017104224e-6,0.7803612880645133,0.0
0.198,-0.005155672904126218,-3.001829742423079e-6,0.7803612880645143,0.0
0.199,-0.005208142016437156,-3.0629320208235477e-6,0.7803612880645132,0.0
0.2,-0.005260805414003089,-3.124918415919561e-6,0.7803612880645138,0.0
0.201,-0.0053136633113979315,-3.187797066957123e-6,0.7803612880645135,0.0
0.202,-0.0053667159611137105,-3.2515761742345304e-6,0.7803612880645137,0.0
0.203,-0.005419963652909088,-3.316263999882563e-6,0.7803612880645129,0.0
0.204,-0.005473406713172979,-3.381868868685008e-6,0.7803612880645133,0.0
0.205,-0.005527045504289951,-3.448399168841181e-6,0.7803612880645131,0.0
0.206,-0.005580880423944112,-3.515863352722046e-6,0.780361288064513,0.0
0.207,-0.005634911904450979,-3.5842699375913207e-6,0.7803612880645132,0.0
0.208,-0.005689140412039828,-3.653627506354333e-6,0.7803612880645139,0.0
0.209,-0.005743566446197779,-3.723944708257875e-6,0.7803612880645135,0.0
0.21,-0.005798190538892634,-3.795230259542458e-6,0.7803612880645141,0.0
0.211,-0.00585301325390275,-3.867492944166343e-6,0.7803612880645133,0.0
0.212,-0.005908035186044325,-3.9407416144111775e-6,0.7803612880645127,0.0
0.213,-0.005963256960455521,-4.014985191531971e-6,0.7803612880645133,0.0
0.214,-0.006018679231825308,-4.090232666333028e-6,0.7803612880645132,0.0
0.215,-0.006074302683640287,-4.166493099816296e-6,0.7803612880645135,0.0
0.216,-0.006130128027441062,-4.243775623698643e-6,0.7803612880645127,0.0
0.217,-0.006186156002030652,-4.322089440973037e-6,0.7803612880645134,0.0
0.218,-0.006242387372714209,-4.401443826443385e-6,0.7803612880645137,0.0
0.219,-0.0062988229304770105,-4.481848127229769e-6,0.7803612880645131,0.0
0.22,-0.006355463491286351,-4.563311763240729e-6,0.7803612880645133,0.0
0.221,-0.006412309895244883,-4.6458442276325245e-6,0.7803612880645132,0.0
0.222,-0.006469363005775275,-4.729455087269601e-6,0.7803612880645134,0.0
0.223,-0.00652662370888879,-4.8141539831131645e-6,0.7803612880645132,0.0
0.224,-0.006584092912368611,-4.899950630640661e-6,0.7803612880645129,0.0
0.225,-0.006641771544965147,-4.986854820198143e-6,0.7803612880645129,0.0
0.226,-0.006699660555596898,-5.074876417364557e-6,0.7803612880645132,0.0
0.227,-0.00675776091260305,-5.164025363264433e-6,0.7803612880645129,0.0
0.228,-0.006816073602879946,-5.254311674881759e-6,0.780361288064513,0.0
0.229,-0.006874599631129463,-5.345745445333415e-6,0.7803612880645137,0.0
0.23,-0.006933340019065426,-5.438336844116047e-6,0.7803612880645128,0.0
0.231,-0.006992295804586934,-5.532096117378529e-6,0.780361288064513,0.0
0.232,-0.007051468041058273,-5.627033588075699e-6,0.7803612880645132,0.0
0.233,-0.0071108577964473785,-5.723159656200166e-6,0.7803612880645127,0.0
0.234,-0.007170466152599531,-5.820484798943091e-6,0.7803612880645127,0.0
0.235,-0.00723029420444532,-5.9190195708113975e-6,0.7803612880645133,0.0
0.236,-0.007290343059206172,-6.018774603756567e-6,0.7803612880645139,0.0
0.237,-0.00735061383564517,-6.119760607298458e-6,0.7803612880645133,0.0
0.238,-0.007411107663326533,-6.22198836854721e-6,0.7803612880645137,0.0
0.239,-0.0074718256817905004,-6.325468752296044e-6,0.7803612880645132,0.0
0.24,-0.00753276903987099,-6.430212701039701e-6,0.7803612880645135,0.0
0.241,-0.007593938894925767,-6.536231234973572e-6,0.7803612880645143,0.0
0.242,-0.007655336412068392,-6.643535451968758e-6,0.780361288064513,0.0
0.243,-0.007716962763483881,-6.752136527560151e-6,0.7803612880645134,0.0
0.244,-0.0077788191276872976,-6.8620457148568705e-6,0.7803612880645131,0.0
0.245,-0.00784090668878501,-6.973274344501505e-6,0.7803612880645134,0.0
0.246,-0.007903226635775695,-7.08583382451485e-6,0.7803612880645134,0.0
0.247,-0.00796578016188021,-7.199735640228688e-6,0.7803612880645134,0.0
0.248,-0.008028568463842811,-7.314991354101692e-6,0.7803612880645134,0.0
0.249,-0.00809159274119331,-7.431612605546386e-6,0.7803612880645131,0.0
0.25,-0.008154854195631334,-7.549611110807932e-6,0.7803612880645123,0.0
0.251,-0.008218354030365749,-7.66899866268809e-6,0.7803612880645137,0.0
0.252,-0.00828209344941122,-7.789787130373267e-6,0.7803612880645134,0.0
0.253,-0.008346073656990693,-7.911988459160645e-6,0.7803612880645135,0.0
0.254,-0.008410295856884131,-8.035614670194938e-6,0.7803612880645137,0.0
0.255,-0.008474761251813678,-8.160677860220324e-6,0.7803612880645135,0.0
0.256,-0.008539471042804392,-8.28719020126256e-6,0.7803612880645129,0.0
0.257,-0.008604426428641343,-8.41516394030459e-6,0.7803612880645137,0.0
0.258,-0.008669628605195712,-8.544611398978406e-6,0.780361288064513,0.0
0.259,-0.008735078764930515,-8.675544973189495e-6,0.7803612880645131,0.0
0.26,-0.008800778096266004,-8.807977132752748e-6,0.7803612880645127,0.0
0.261,-0.008866727783083617,-8.941920421044443e-6,0.7803612880645138,0.0
0.262,-0.008932929004100476,-9.077387454564656e-6,0.7803612880645137,0.0
0.263,-0.008999382932429745,-9.214390922559091e-6,0.7803612880645138,0.0
0.264,-0.009066090735002197,-9.35294358654767e-6,0.7803612880645135,0.0
0.265,-0.009133053572073724,-9.493058279921862e-6,0.780361288064513,0.0
0.266,-0.009200272596718184,-9.634747907472834e-6,0.7803612880645133,0.0
0.267,-0.009267748954370214,-9.77802544493327e-6,0.780361288064514,0.0
0.268,-0.00933548378230098,-9.92290393847994e-6,0.7803612880645132,0.0
0.269,-0.009403478209251137,-1.006939650424689e-5,0.7803612880645138,0.0
