Time,Y-Force,Work Integrand,Mass,Mass error
0.0,0.0,5.929230630780102e-21,0.7853981578685604,0.0
0.001,-2.365382801183813e-6,-3.749311667831592e-12,0.7853981578685604,0.0
0.002,-1.855802418182506e-5,-1.1762712766639235e-10,0.7853981578685604,0.0
0.003,-6.068951727034033e-5,-8.653458943975827e-10,0.7853981578685602,0.0
0.004,-0.0001378817297399415,-3.4948077193744484e-9,0.7853981578685603,0.0
0.005,-0.0002554744983163104,-1.011782864729241e-8,0.7853981578685604,0.0
0.006,-0.00041479748098405267,-2.3657851335590193e-8,0.7853981578685604,0.0
0.007,-0.0006135103050235458,-4.763400978546233e-8,0.7853981578685602,0.0
0.008,-0.0008464276600887999,-8.585129345479287e-8,0.7853981578685604,0.0
0.009,-0.001106676656410066,-1.4208996276595547e-7,0.7853981578685604,0.0
0.01,-0.0013869929269212378,-2.198875444301817e-7,0.7853981578685604,0.0
0.011,-0.0016809545345681798,-3.2248416338524766e-7,0.7853981578685604,0.0
0.012,-0.0019839776782077934,-4.5296252657934296e-7,0.7853981578685605,0.0
0.013,-0.002293948953623559,-6.145672278678842e-7,0.7853981578685604,0.0
0.014,-0.002611435097445103,-8.111452026040395e-7,0.7853981578685603,0.0
0.015,-0.0029394805358298193,-1.0476198359666298e-6,0.7853981578685603,0.0
0.016,-0.003283064030374927,-1.3304016321698123e-6,0.7853981578685604,0.0
0.017,-0.003648329152225571,-1.6676499397896057e-6,0.7853981578685605,0.0
0.018,-0.004041724018623238,-2.0693296373151078e-6,0.78539815786856,0.0
0.019,-0.00446918291084808,-2.5470467890526547e-6,0.7853981578685603,0.0
0.02,-0.00493545936635309,-3.113689066280498e-6,0.7853981578685603,0.0
0.021,-0.005443683446491487,-3.7829314493763137e-6,0.7853981578685603,0.0
0.022,-0.005995173025870493,-4.568688855084669e-6,0.7853981578685602,0.0
0.023,-0.0065894879838728215,-5.484601822433946e-6,0.7853981578685605,0.0
0.024,-0.007224683512426111,-6.543630024687282e-6,0.7853981578685604,0.0
0.025,-0.007897698395761488,-7.757805193088583e-6,0.7853981578685603,0.0
0.026,-0.00860480729528934,-9.138166059528656e-6,0.7853981578685604,0.0
0.027,-0.009342071423461995,-1.0694869540221405e-5,0.7853981578685602,0.0
0.028,-0.010105736222135508,-1.2437449834317056e-5,0.7853981578685603,0.0
0.029,-0.010892543481014982,-1.437518343817357e-5,0.7853981578685604,0.0
0.03,-0.011699944437808085,-1.651751371820444e-5,0.7853981578685603,0.0
0.031,-0.012526216319734829,-1.8874491803201783e-5,0.7853981578685603,0.0
0.032,-0.013370495412488026,-2.145719790074387e-5,0.7853981578685606,0.0
0.033,-0.014232744523516416,-2.4278115190196764e-5,0.7853981578685605,0.0
0.034,-0.015113672464074135,-2.7351434497557402e-5,0.7853981578685604,0.0
0.035,-0.01601461967201878,-3.0693270877842765e-5,0.7853981578685604,0.0
0.036,-0.016937419465689274,-3.4321773664999604e-5,0.7853981578685602,0.0
0.037,-0.01788424059628957,-3.82571115969e-5,0.7853981578685602,0.0
0.038,-0.018857415049250648,-4.252131705826268e-5,0.7853981578685605,0.0
0.039,-0.019859255868379666,-4.7137980782418e-5,0.7853981578685604,0.0
0.04,-0.02089187270088111,-5.2131801769616376e-5,0.7853981578685605,0.0
0.041,-0.021956996680550844,-5.752801614677082e-5,0.7853981578685602,0.0
0.042,-0.023055829744188294,-6.335175069931143e-5,0.7853981578685605,0.0
0.043,-0.02418893513144882,-6.962736778066969e-5,0.7853981578685603,0.0
0.044,-0.02535618466718903,-7.63778834557173e-5,0.7853981578685603,0.0
0.045,-0.02655677411659063,-8.362454560627026e-5,0.7853981578685604,0.0
0.046,-0.02778931079357383,-9.138665027705155e-5,0.7853981578685604,0.0
0.047,-0.02905196868455473,-9.968165195938135e-5,0.7853981578685604,0.0
0.048,-0.030342697046362055,-0.00010852558861761466,0.78539815786856,0.0
0.049,-0.0316594603213205,-0.00011793379939384254,0.7853981578685603,0.0
0.05,-0.0330004817100944,-0.00012792186829461896,0.7853981578685603,0.0
0.051,-0.03436446087326095,-0.00013850668786838383,0.7853981578685605,0.0
0.052,-0.035750738434809026,-0.00014970750969646798,0.7853981578685604,0.0
0.053,-0.037159386030571895,-0.0001615468387196027,0.7853981578685602,0.0
0.054,-0.038591209775431956,-0.00017405103881943437,0.7853981578685604,0.0
0.055,-0.04004766594903808,-0.00018725054747925976,0.7853981578685605,0.0
0.056,-0.04153069889777772,-0.0002011796444608355,0.7853981578685604,0.0
0.057,-0.04304252107162565,-0.00021587577725701822,0.7853981578685603,0.0
0.058,-0.04458536240952471,-0.00023137850673863106,0.7853981578685604,0.0
0.059,-0.046161219988503976,-0.0002477281912699938,0.7853981578685603,0.0
0.06,-0.04777163849999688,-0.00026496456847195995,0.7853981578685604,0.0
0.061,-0.04941754780614005,-0.00028312541432296695,0.7853981578685605,0.0
0.062,-0.051099176183862394,-0.00030224545565810633,0.7853981578685604,0.0
0.063,-0.052816047945521305,-0.00032235568395454217,0.7853981578685603,0.0
0.064,-0.0545670632783577,-0.0003434831687032739,0.7853981578685604,0.0
0.065,-0.05635064782130428,-0.0003656514040077715,0.7853981578685604,0.0
0.066,-0.0581649510566149,-0.0003888811510728042,0.7853981578685603,0.0
0.067,-0.06000806712097084,-0.00041319167194295466,0.7853981578685603,0.0
0.068,-0.06187824980378309,-0.0004386021959859321,0.7853981578685603,0.0
0.069,-0.06377409545817159,-0.00046513342827245695,0.7853981578685603,0.0
0.07,-0.06569467293228737,-0.0004928089032753408,0.7853981578685604,0.0
0.071,-0.06763958759214184,-0.0005216560093883171,0.7853981578685603,0.0
0.072,-0.06960897585848969,-0.0005517065566456262,0.7853981578685602,0.0
0.073,-0.07160343605287256,-0.0005829968248182993,0.7853981578685605,0.0
0.074,-0.07362390940777308,-0.0006155671020137005,0.7853981578685602,0.0
0.075,-0.07567153074015964,-0.0006494607938896408,0.7853981578685603,0.0
0.076,-0.07774747081497768,-0.0006847232399423402,0.7853981578685603,0.0
0.077,-0.07985279163086689,-0.000721400407586649,0.7853981578685604,0.0
0.078,-0.08198833206513667,-0.0007595376421612697,0.7853981578685602,0.0
0.079,-0.084154635292232,-0.0007991786313053285,0.7853981578685602,0.0
0.08,-0.08635192223050847,-0.0008403646996708401,0.7853981578685603,0.0
0.081,-0.08858010818810502,-0.0008831344927198136,0.7853981578685603,0.0
0.082,-0.09083885399764347,-0.0009275240467461789,0.7853981578685604,0.0
0.083,-0.09312763910044985,-0.0009735671869528853,0.7853981578685604,0.0
0.084,-0.09544584270549672,-0.0010212961554552022,0.7853981578685603,0.0
0.085,-0.09779282027635672,-0.0010707423522313617,0.7853981578685604,0.0
0.086,-0.10016796572640052,-0.0011219370757190213,0.7853981578685603,0.0
0.087,-0.10257075403518678,-0.0011749121729413906,0.7853981578685603,0.0
0.088,-0.10500076358541399,-0.0012297005449948238,0.7853981578685604,0.0
0.089,-0.10745768143918655,-0.0012863364934913857,0.7853981578685603,0.0
0.09,-0.10994129731356717,-0.0013448559279563704,0.7853981578685603,0.0
0.091,-0.11245149280535571,-0.0014052964757718459,0.7853981578685602,0.0
0.092,-0.11498823147513759,-0.0014676975409480993,0.7853981578685603,0.0
0.093,-0.11755155312194931,-0.0015321003459111138,0.7853981578685603,0.0
0.094,-0.12014157262602687,-0.0015985479659076651,0.7853981578685602,0.0
0.095,-0.12275848088749353,-0.0016670853360067003,0.7853981578685604,0.0
0.096,-0.12540254337419432,-0.0017377591849519654,0.7853981578685603,0.0
0.097,-0.12807409113081247,-0.001810617836614889,0.7853981578685603,0.0
0.098,-0.1307734999972876,-0.0018857108242187684,0.7853981578685603,0.0
0.099,-0.1335011560793795,-0.0019630882864799318,0.7853981578685604,0.0
0.1,-0.1362574087294086,-0.002042800155267699,0.7853981578685602,0.0
0.101,-0.1390425157285189,-0.0021248951939305226,0.7853981578685603,0.0
0.102,-0.14185658823934588,-0.002209419993771354,0.7853981578685603,0.0
0.103,-0.1446995447346815,-0.0022964180720901513,0.7853981578685603,0.0
0.104,-0.14757108305110433,-0.00238592922907745,0.7853981578685603,0.0
0.105,-0.15047067784460788,-0.002477989306630124,0.7853981578685603,0.0
0.106,-0.15339760727614626,-0.002572630449028751,0.7853981578685602,0.0
0.107,-0.15635100828457293,-0.0026698818982198724,0.7853981578685603,0.0
0.108,-0.15932995508568037,-0.0027697712751407755,0.7853981578685603,0.0
0.109,-0.16233355141113748,-0.0028723262164779273,0.78539815786856,0.0
0.11,-0.1653610242237855,-0.002977576167934811,0.7853981578685603,0.0
0.111,-0.16841180574305703,-0.003085554093335465,0.7853981578685602,0.0
0.112,-0.17148559178849654,-0.0031962978525395397,0.7853981578685602,0.0
0.113,-0.1745823675419902,-0.0033098510332056803,0.7853981578685602,0.0
0.114,-0.17770239635695573,-0.0034262630884876327,0.7853981578685602,0.0
0.115,-0.18084617247827994,-0.0035455887252818993,0.7853981578685603,0.0
0.116,-0.18401434364820002,-0.0036678865917487077,0.7853981578685603,0.0
0.117,-0.1872076137621712,-0.0037932174124301055,0.7853981578685602,0.0
0.118,-0.19042663837500218,-0.003921641798946371,0.78539815786856,0.0
0.119,-0.19367192658193177,-0.004053218011675727,0.7853981578685602,0.0
0.12,-0.19694376156590865,-0.004187999955953023,0.7853981578685602,0.0
0.121,-0.20024214917555305,-0.004326035664246067,0.7853981578685603,0.0
0.122,-0.2035667997912567,-0.004467366448935292,0.7853981578685603,0.0
0.123,-0.20691714411368078,-0.004612026819214278,0.78539815786856,0.0
0.124,-0.21029237907052645,-0.004760045154108168,0.78539815786856,0.0
0.125,-0.2136915364055021,-0.004911445026477716,0.7853981578685603,0.0
0.126,-0.21711356414306993,-0.005066246993570646,0.7853981578685602,0.0
0.127,-0.22055741024031583,-0.005224470618235624,0.7853981578685603,0.0
0.128,-0.22402209833339315,-0.0053861364667439834,0.7853981578685602,0.0
0.129,-0.22750678733495588,-0.005551267844522097,0.7853981578685603,0.0
0.13,-0.23101080935950558,-0.005719892075522932,0.78539815786856,0.0
0.131,-0.23453368358490945,-0.005892041196375375,0.78539815786856,0.0
0.132,-0.23807510673821763,-0.006067752012684696,0.7853981578685603,0.0
0.133,-0.24163492352998617,-0.0062470655414108775,0.7853981578685603,0.0
0.134,-0.24521308227853522,-0.006430025930772645,0.7853981578685602,0.0
0.135,-0.248809582029903,-0.00661667900064121,0.7853981578685602,0.0
0.136,-0.25242441769342605,-0.006807070577832405,0.78539815786856,0.0
0.137,-0.2560575291922502,-0.007001244811111557,0.7853981578685602,0.0
0.138,-0.2597087595599272,-0.00719924264162751,0.7853981578685599,0.0
0.139,-0.26337782551731515,-0.007401100579412435,0.78539815786856,0.0
0.14,-0.26706430254453917,-0.007606849899957045,0.78539815786856,0.0
0.141,-0.2707676249908011,-0.007816516331342727,0.7853981578685602,0.0
0.142,-0.2744871004545004,-0.008030120256256462,0.7853981578685602,0.0
0.143,-0.27822193657925665,-0.008247677407867395,0.7853981578685602,0.0
0.144,-0.28197127756426754,-0.008469199996683184,0.7853981578685602,0.0
0.145,-0.28573424707193196,-0.008694698169132924,0.7853981578685602,0.0
0.146,-0.2895099938148431,-0.00892418166932165,0.78539815786856,0.0
0.147,-0.2932977359093294,-0.009157661554678578,0.7853981578685602,0.0
0.148,-0.2970968000999883,-0.009395151805539556,0.7853981578685604,0.0
0.149,-0.30090665220848356,-0.009636670669505944,0.78539815786856,0.0
0.15,-0.3047269156650527,-0.009882241594935115,0.7853981578685602,0.0
0.151,-0.3085573757602762,-0.010131893634681956,0.78539815786856,0.0
0.152,-0.31239796829884003,-0.010385661240813415,0.7853981578685602,0.0
0.153,-0.3162487526032898,-0.010643583421506661,0.7853981578685602,0.0
0.154,-0.3201098702173901,-0.010905702289279562,0.78539815786856,0.0
0.155,-0.3239814920699251,-0.011172061089988736,0.7853981578685603,0.0
0.156,-0.3278637581260919,-0.011442701858477733,0.78539815786856,0.0
0.157,-0.33175671451250777,-0.011717662892555943,0.78539815786856,0.0
0.158,-0.3356602536063584,-0.011996976265765229,0.78539815786856,0.0
0.159,-0.33957406252246924,-0.012280665606008573,0.7853981578685603,0.0
0.16,-0.34349758477026615,-0.012568744348694004,0.7853981578685602,0.0
0.161,-0.3474299986179603,-0.012861214629646553,0.7853981578685602,0.0
0.162,-0.3513702140041546,-0.0131580669178974,0.7853981578685602,0.0
0.163,-0.3553168878591455,-0.013459280408054358,0.78539815786856,0.0
0.164,-0.35926845567168675,-0.01376482410524267,0.7853981578685602,0.0
0.165,-0.3632231753137152,-0.014074658453167715,0.7853981578685599,0.0
0.166,-0.3671791777555935,-0.014388737288374517,0.78539815786856,0.0
0.167,-0.37113451856053103,-0.014707009860851467,0.78539815786856,0.0
0.168,-0.37508722405401684,-0.015029422649528126,0.78539815786856,0.0
0.169,-0.37903532684270935,-0.015355920724046804,0.78539815786856,0.0
0.17,-0.3829768868249328,-0.015686448460100935,0.78539815786856,0.0
0.171,-0.3869099958138271,-0.01602094949874444,0.7853981578685602,0.0
0.172,-0.3908327661350248,-0.016359365940657955,0.7853981578685602,0.0
0.173,-0.39474330577107697,-0.016701636871775435,0.7853981578685603,0.0
0.174,-0.39863968451708853,-0.01704769641338931,0.7853981578685603,0.0
0.175,-0.40251989692978096,-0.017397471564682687,0.78539815786856,0.0
0.176,-0.4063818284200873,-0.01775088014816563,0.7853981578685602,0.0
0.177,-0.4102232305777074,-0.018107829172154283,0.7853981578685603,0.0
0.178,-0.414041710758263,-0.01846821388779013,0.7853981578685599,0.0
0.179,-0.41783473924759784,-0.018831917744991225,0.7853981578685603,0.0
0.18,-0.4215996751705844,-0.019198813350952637,0.78539815786856,0.0
0.181,-0.4253338100140409,-0.019568764418949114,0.78539815786856,0.0
0.182,-0.4290344254834668,-0.019941628578938317,0.7853981578685599,0.0
0.183,-0.4326988606847566,-0.02031726081966112,0.7853981578685599,0.0
0.184,-0.436324582525875,-0.020695517257493662,0.78539815786856,0.0
0.185,-0.4399092528940942,-0.021076258889592636,0.7853981578685602,0.0
0.186,-0.44345078660083326,-0.02145935499224519,0.7853981578685603,0.0
0.187,-0.44694739521726445,-0.021844685868882274,0.78539815786856,0.0
0.188,-0.4503976135810235,-0.02223214472969927,0.78539815786856,0.0
0.189,-0.4538003077073758,-0.0226216385858595,0.7853981578685599,0.0
0.19,-0.4571546648321849,-0.02301308815262576,0.7853981578685602,0.0
0.191,-0.4604601681022302,-0.02340642686341428,0.7853981578685603,0.0
0.192,-0.4637165598049604,-0.02380159918758329,0.7853981578685602,0.0
0.193,-0.4669237978573926,-0.024198558508348927,0.7853981578685602,0.0
0.194,-0.4700820104922707,-0.02459726484711354,0.78539815786856,0.0
0.195,-0.4731914537123254,-0.02499768271477283,0.78539815786856,0.0
0.196,-0.47625247522384795,-0.02539977933187315,0.78539815786856,0.0
0.197,-0.47926548735658514,-0.025803523394470243,0.78539815786856,0.0
0.198,-0.482230950103244,-0.026208884480502806,0.78539815786856,0.0
0.199,-0.48514936404753684,-0.02661583310338983,0.78539815786856,0.0
0.2,-0.4880212717531851,-0.027024341336068444,0.78539815786856,0.0
0.201,-0.4908472652784739,-0.02743438385934467,0.7853981578685599,0.0
0.202,-0.4936279969340265,-0.027845939240143114,0.7853981578685599,0.0
0.203,-0.4963641902382592,-0.02825899122218152,0.7853981578685602,0.0
0.204,-0.49905664822019613,-0.02867352981445695,0.78539815786856,0.0
0.205,-0.5017062567142507,-0.02908955198979099,0.7853981578685602,0.0
0.206,-0.5043139810012178,-0.029507061851988925,0.78539815786856,0.0
0.207,-0.5068808549803805,-0.029926070189912862,0.7853981578685602,0.0
0.208,-0.5094079629171988,-0.030346593403052874,0.7853981578685599,0.0
0.209,-0.5118964146166967,-0.030768651849130885,0.78539815786856,0.0
0.21,-0.514347315558779,-0.03119226772360502,0.7853981578685603,0.0
0.211,-0.5167617340501853,-0.031617462628488385,0.7853981578685602,0.0
0.212,-0.5191406677681685,-0.03204425501978432,0.78539815786856,0.0
0.213,-0.5214850121798986,-0.03247265773688705,0.7853981578685599,0.0
0.214,-0.5237955332194097,-0.032902675812659474,0.78539815786856,0.0
0.215,-0.5260728463026876,-0.033334304740334594,0.78539815786856,0.0
0.216,-0.5283174032868256,-0.033767529334999796,0.78539815786856,0.0
0.217,-0.5305294883647802,-0.03420232327651586,0.7853981578685602,0.0
0.218,-0.5327092231800878,-0.034638649361603574,0.7853981578685599,0.0
0.219,-0.5348565807001036,-0.03507646043066047,0.7853981578685602,0.0
0.22,-0.5369714066649274,-0.0355157008751702,0.7853981578685603,0.0
0.221,-0.5390534467969346,-0.035956308579935065,0.7853981578685599,0.0
0.222,-0.5411023774751214,-0.0363982171159475,0.78539815786856,0.0
0.223,-0.5431178373031624,-0.036841357978670414,0.7853981578685599,0.0
0.224,-0.5450994569645853,-0.03728566266546089,0.78539815786856,0.0
0.225,-0.5470468849783767,-0.037731064405642084,0.78539815786856,0.0
0.226,-0.5489598074271402,-0.03817749939583753,0.7853981578685602,0.0
0.227,-0.5508379603882974,-0.03862490744806803,0.7853981578685603,0.0
0.228,-0.5526811345885485,-0.039073232023234566,0.78539815786856,0.0
0.229,-0.5544891726382022,-0.039522419690968466,0.7853981578685602,0.0
0.23,-0.556261959990977,-0.03997241912084207,0.7853981578685603,0.0
0.231,-0.5579994114250457,-0.04042317976214488,0.7853981578685603,0.0
0.232,-0.5597014552759707,-0.040874650403567137,0.7853981578685602,0.0
0.233,-0.5613680178191576,-0.04132677781588118,0.7853981578685602,0.0
0.234,-0.5629990100795186,-0.041779505668400996,0.78539815786856,0.0
0.235,-0.5645943189549274,-0.04223277387476075,0.7853981578685602,0.0
0.236,-0.5661538039270471,-0.04268651846944878,0.78539815786856,0.0
0.237,-0.5676772998754132,-0.04314067204995363,0.78539815786856,0.0
0.238,-0.5691646257045777,-0.04359516474832727,0.7853981578685603,0.0
0.239,-0.5706155977384118,-0.04404992562920422,0.7853981578685599,0.0
0.24,-0.5720300462245573,-0.04450488435688221,0.7853981578685602,0.0
0.241,-0.5734078328981527,-0.04495997293879882,0.7853981578685602,0.0
0.242,-0.5747488674215191,-0.045415127340798445,0.78539815786856,0.0
0.243,-0.576053120656649,-0.045870288782462576,0.7853981578685599,0.0
0.244,-0.5773206331155873,-0.046325404556719685,0.78539815786856,0.0
0.245,-0.5785515175158835,-0.046780428272446106,0.78539815786856,0.0
0.246,-0.5797459550676161,-0.04723531948504647,0.7853981578685602,0.0
0.247,-0.5809041858457205,-0.0476900427499026,0.78539815786856,0.0
0.248,-0.5820264942675517,-0.04814456619869778,0.78539815786856,0.0
0.249,-0.583113191223048,-0.0485988597912424,0.7853981578685599,0.0
0.25,-0.5841645947353391,-0.049052893429594346,0.78539815786856,0.0
0.251,-0.5851810111329776,-0.04950663513328696,0.78539815786856,0.0
0.252,-0.5861627185885308,-0.04996004946367111,0.78539815786856,0.0
0.253,-0.5871099545488487,-0.050413096353466524,0.78539815786856,0.0
0.254,-0.5880229080980581,-0.050865730449184965,0.7853981578685599,0.0
0.255,-0.5889017177199714,-0.05131790101512218,0.78539815786856,0.0
0.256,-0.5897464743332099,-0.05176955238539949,0.7853981578685602,0.0
0.257,-0.5905572289279934,-0.052220624892216155,0.7853981578685599,0.0
0.258,-0.5913340036966988,-0.052671056150539075,0.78539815786856,0.0
0.259,-0.5920768052617724,-0.053120782546748374,0.78539815786856,0.0
0.26,-0.5927856384860442,-0.05356974076426946,0.7853981578685598,0.0
0.261,-0.5934605194016775,-0.054017869183560024,0.7853981578685598,0.0
0.262,-0.5941014859957638,-0.05446510901549445,0.78539815786856,0.0
0.263,-0.5947086059100517,-0.05491140506292519,0.78539815786856,0.0
0.264,-0.5952819805038043,-0.05535670605020912,0.78539815786856,0.0
0.265,-0.5958217451470129,-0.05580096450947522,0.78539815786856,0.0
0.266,-0.5963280660085855,-0.05624413625984731,0.7853981578685599,0.0
0.267,-0.59680113394319,-0.056686179556891536,0.78539815786856,0.0
0.268,-0.597241156331533,-0.0571270540202595,0.7853981578685598,0.0
0.269,-0.5976483478753196,-0.057566719465479255,0.78539815786856,0.0
0.27,-0.598022921385581,-0.058005134769919586,0.78539815786856,0.0
0.271,-0.5983650795367765,-0.058442256893731614,0.78539815786856,0.0
0.272,-0.5986750084055599,-0.05887804015571696,0.78539815786856,0.0
0.273,-0.5989528733930012,-0.05931243583432491,0.78539815786856,0.0
0.274,-0.5991988178680372,-0.059745392128810526,0.7853981578685599,0.0
0.275,-0.599412964594356,-0.06017685447855739,0.7853981578685599,0.0
0.276,-0.5995954197374429,-0.060606766203374296,0.7853981578685599,0.0
0.277,-0.5997462790159367,-0.06103506939735065,0.78539815786856,0.0
0.278,-0.5998656353789795,-0.06146170598626144,0.7853981578685599,0.0
0.279,-0.599953587472891,-0.0618866188452917,0.7853981578685599,0.0
